Angle,,,,,,,Intensity
10,2190,1,,,,632,1558
10.02,2179,1,,,,586,1593
10.04,2230,1,,,,631,1599
10.06,2189,1,,,,645,1544
10.08,2223,1,,,,631,1592
10.1,2178,1,,,,610,1568
10.12,2206,1,,,,642,1564
10.14,2235,1,,,,643,1592
10.16,2251,1,,,,609,1642
10.18,2258,1,,,,602,1656
10.2,2304,1,,,,655,1649
10.22,2451,1,,,,642,1809
10.24,2470,1,,,,641,1829
10.26,2455,1,,,,612,1843
10.28,2465,1,,,,670,1795
10.3,2497,1,,,,579,1918
10.32,2578,1,,,,655,1923
10.34,2682,1,,,,622,2060
10.36,2738,1,,,,611,2127
10.38,2722,1,,,,630,2092
10.4,2913,1,,,,611,2302
10.42,2914,1,,,,595,2319
10.44,3011,1,,,,614,2397
10.46,3252,1,,,,625,2627
10.48,3437,1,,,,622,2815
10.5,3596,1,,,,617,2979
10.52,3812,1,,,,630,3182
10.54,4007,1,,,,654,3353
10.56,4388,1,,,,639,3749
10.58,4855,1,,,,663,4192
10.6,5142,1,,,,632,4510
10.62,5570,1,,,,638,4932
10.64,6210,1,,,,661,5549
10.66,6807,1,,,,621,6186
10.68,7475,1,,,,625,6850
10.7,8218,1,,,,653,7565
10.72,9062,1,,,,666,8396
10.74,10083,1,,,,620,9463
10.76,11052,1,,,,658,10394
10.78,12513,1,,,,642,11871
10.8,14282,1,,,,684,13598
10.82,16120,1,,,,673,15447
10.84,18155,1,,,,623,17532
10.86,20995,1,,,,656,20339
10.88,24510,1,,,,680,23830
10.9,28415,1,,,,681,27734
10.92,33531,1,,,,627,32904
10.94,39675,1,,,,669,39006
10.96,46989,1,,,,642,46347
10.98,54699,1,,,,690,54009
11,61779,1,,,,627,61152
11.02,66380,1,,,,703,65677
11.04,66130,1,,,,707,65423
11.06,59852,1,,,,656,59196
11.08,49805,1,,,,662,49143
11.1,38860,1,,,,687,38173
11.12,29310,1,,,,676,28634
11.14,22208,1,,,,665,21543
11.16,16601,1,,,,661,15940
11.18,12828,1,,,,647,12181
11.2,10368,1,,,,653,9715
11.22,8355,1,,,,648,7707
11.24,7169,1,,,,681,6488
11.26,6196,1,,,,715,5481
11.28,5608,1,,,,679,4929
11.3,5119,1,,,,691,4428
11.32,4731,1,,,,692,4039
11.34,4387,1,,,,663,3724
11.36,4120,1,,,,689,3431
11.38,3845,1,,,,679,3166
11.4,3686,1,,,,660,3026
11.42,3562,1,,,,686,2876
11.44,3507,1,,,,713,2794
11.46,3373,1,,,,629,2744
11.48,3261,1,,,,712,2549
11.5,3172,1,,,,668,2504
11.52,3096,1,,,,674,2422
11.54,2970,1,,,,676,2294
11.56,2882,1,,,,679,2203
11.58,2874,1,,,,673,2201
11.6,2835,1,,,,671,2164
11.62,2858,1,,,,692,2166
11.64,2860,1,,,,670,2190
11.66,2769,1,,,,690,2079
11.68,2703,1,,,,713,1990
11.7,2676,1,,,,695,1981
11.72,2705,1,,,,710,1995
11.74,2644,1,,,,679,1965
11.76,2624,1,,,,695,1929
11.78,2612,1,,,,698,1914
11.8,2522,1,,,,715,1807
11.82,2570,1,,,,728,1842
11.84,2531,1,,,,752,1779
11.86,2557,1,,,,679,1878
11.88,2539,1,,,,708,1831
11.9,2475,1,,,,668,1807
11.92,2534,1,,,,690,1844
11.94,2555,1,,,,736,1819
11.96,2470,1,,,,673,1797
11.98,2496,1,,,,764,1732
12,2462,1,,,,679,1783
12.02,2465,1,,,,719,1746
12.04,2440,1,,,,776,1664
12.06,2447,1,,,,719,1728
12.08,2438,1,,,,716,1722
12.1,2491,1,,,,755,1736
12.12,2411,1,,,,786,1625
12.14,2395,1,,,,749,1646
12.16,2470,1,,,,760,1710
12.18,2417,1,,,,766,1651
12.2,2376,1,,,,727,1649
12.22,2374,1,,,,714,1660
12.24,2441,1,,,,745,1696
12.26,2362,1,,,,723,1639
12.28,2428,1,,,,721,1707
12.3,2422,1,,,,728,1694
12.32,2479,1,,,,779,1700
12.34,2425,1,,,,752,1673
12.36,2437,1,,,,758,1679
12.38,2409,1,,,,760,1649
12.4,2464,1,,,,735,1729
12.42,2453,1,,,,757,1696
12.44,2400,1,,,,780,1620
12.46,2488,1,,,,752,1736
12.48,2493,1,,,,766,1727
12.5,2380,1,,,,784,1596
12.52,2464,1,,,,745,1719
12.54,2476,1,,,,783,1693
12.56,2493,1,,,,777,1716
12.58,2429,1,,,,708,1721
12.6,2613,1,,,,729,1884
12.62,2528,1,,,,771,1757
12.64,2673,1,,,,766,1907
12.66,2676,1,,,,806,1870
12.68,2718,1,,,,781,1937
12.7,2760,1,,,,753,2007
12.72,2826,1,,,,746,2080
12.74,2942,1,,,,736,2206
12.76,3059,1,,,,725,2334
12.78,3157,1,,,,746,2411
12.8,3323,1,,,,745,2578
12.82,3466,1,,,,788,2678
12.84,3640,1,,,,801,2839
12.86,3787,1,,,,766,3021
12.88,3936,1,,,,795,3141
12.9,4094,1,,,,772,3322
12.92,4500,1,,,,785,3715
12.94,4855,1,,,,824,4031
12.96,5224,1,,,,767,4457
12.98,5501,1,,,,751,4750
13,6118,1,,,,760,5358
13.02,6607,1,,,,770,5837
13.04,7542,1,,,,762,6780
13.06,8214,1,,,,811,7403
13.08,9294,1,,,,807,8487
13.1,10590,1,,,,798,9792
13.12,12130,1,,,,804,11326
13.14,14254,1,,,,775,13479
13.16,17111,1,,,,771,16340
13.18,19647,1,,,,757,18890
13.2,23165,1,,,,816,22349
13.22,26735,1,,,,775,25960
13.24,29908,1,,,,813,29095
13.26,31995,1,,,,811,31184
13.28,32115,1,,,,833,31282
13.3,29582,1,,,,823,28759
13.32,25438,1,,,,845,24593
13.34,20397,1,,,,861,19536
13.36,16001,1,,,,816,15185
13.38,12612,1,,,,812,11800
13.4,9687,1,,,,836,8851
13.42,7733,1,,,,833,6900
13.44,6358,1,,,,811,5547
13.46,5410,1,,,,825,4585
13.48,4838,1,,,,814,4024
13.5,4521,1,,,,859,3662
13.52,4135,1,,,,866,3269
13.54,3870,1,,,,842,3028
13.56,3735,1,,,,833,2902
13.58,3496,1,,,,831,2665
13.6,3376,1,,,,841,2535
13.62,3190,1,,,,839,2351
13.64,3212,1,,,,849,2363
13.66,3054,1,,,,767,2287
13.68,2962,1,,,,857,2105
13.7,2938,1,,,,839,2099
13.72,2931,1,,,,869,2062
13.74,2901,1,,,,816,2085
13.76,2892,1,,,,849,2043
13.78,2736,1,,,,857,1879
13.8,2743,1,,,,817,1926
13.82,2618,1,,,,878,1740
13.84,2682,1,,,,843,1839
13.86,2716,1,,,,847,1869
13.88,2698,1,,,,865,1833
13.9,2692,1,,,,857,1835
13.92,2645,1,,,,887,1758
13.94,2683,1,,,,837,1846
13.96,2668,1,,,,871,1797
13.98,2618,1,,,,870,1748
14,2650,1,,,,856,1794
14.02,2639,1,,,,811,1828
14.04,2682,1,,,,836,1846
14.06,2720,1,,,,871,1849
14.08,2668,1,,,,869,1799
14.1,2613,1,,,,913,1700
14.12,2533,1,,,,863,1670
14.14,2611,1,,,,875,1736
14.16,2663,1,,,,885,1778
14.18,2656,1,,,,885,1771
14.2,2613,1,,,,870,1743
14.22,2566,1,,,,915,1651
14.24,2620,1,,,,874,1746
14.26,2686,1,,,,939,1747
14.28,2563,1,,,,928,1635
14.3,2584,1,,,,884,1700
14.32,2586,1,,,,898,1688
14.34,2693,1,,,,891,1802
14.36,2649,1,,,,900,1749
14.38,2599,1,,,,877,1722
14.4,2598,1,,,,895,1703
14.42,2615,1,,,,889,1726
14.44,2693,1,,,,933,1760
14.46,2637,1,,,,983,1654
14.48,2630,1,,,,921,1709
14.5,2627,1,,,,936,1691
14.52,2697,1,,,,900,1797
14.54,2689,1,,,,905,1784
14.56,2728,1,,,,920,1808
14.58,2766,1,,,,886,1880
14.6,2764,1,,,,966,1798
14.62,2754,1,,,,933,1821
14.64,2768,1,,,,959,1809
14.66,2772,1,,,,945,1827
14.68,2739,1,,,,960,1779
14.7,2726,1,,,,923,1803
14.72,2816,1,,,,929,1887
14.74,2723,1,,,,985,1738
14.76,2733,1,,,,936,1797
14.78,2815,1,,,,984,1831
14.8,2766,1,,,,1002,1764
14.82,2753,1,,,,985,1768
14.84,2861,1,,,,943,1918
14.86,2853,1,,,,997,1856
14.88,2842,1,,,,1000,1842
14.9,2976,1,,,,948,2028
14.92,3096,1,,,,972,2124
14.94,3074,1,,,,973,2101
14.96,3244,1,,,,948,2296
14.98,3295,1,,,,965,2330
15,3371,1,,,,986,2385
15.02,3532,1,,,,1001,2531
15.04,3514,1,,,,985,2529
15.06,3768,1,,,,1001,2767
15.08,3849,1,,,,955,2894
15.1,4189,1,,,,1008,3181
15.12,4265,1,,,,1019,3246
15.14,4666,1,,,,1038,3628
15.16,4723,1,,,,1073,3650
15.18,5069,1,,,,1039,4030
15.2,5343,1,,,,1037,4306
15.22,5875,1,,,,998,4877
15.24,6347,1,,,,1003,5344
15.26,7005,1,,,,1007,5998
15.28,7845,1,,,,1043,6802
15.3,8788,1,,,,1026,7762
15.32,10134,1,,,,1004,9130
15.34,11538,1,,,,1065,10473
15.36,13305,1,,,,994,12311
15.38,15638,1,,,,1013,14625
15.4,18619,1,,,,1014,17605
15.42,21754,1,,,,1054,20700
15.44,25957,1,,,,1036,24921
15.46,30445,1,,,,1068,29377
15.48,34737,1,,,,995,33742
15.5,37064,1,,,,1044,36020
15.52,37700,1,,,,1019,36681
15.54,35516,1,,,,1008,34508
15.56,30644,1,,,,1045,29599
15.58,25145,1,,,,1056,24089
15.6,20137,1,,,,1040,19097
15.62,15962,1,,,,1087,14875
15.64,12589,1,,,,1071,11518
15.66,9918,1,,,,1050,8868
15.68,8399,1,,,,975,7424
15.7,7217,1,,,,1036,6181
15.72,6237,1,,,,1061,5176
15.74,5633,1,,,,1089,4544
15.76,5104,1,,,,1041,4063
15.78,4805,1,,,,1030,3775
15.8,4487,1,,,,1082,3405
15.82,4304,1,,,,1061,3243
15.84,4065,1,,,,1062,3003
15.86,3969,1,,,,1091,2878
15.88,3786,1,,,,1002,2784
15.9,3786,1,,,,1097,2689
15.92,3567,1,,,,1112,2455
15.94,3514,1,,,,1109,2405
15.96,3457,1,,,,1130,2327
15.98,3543,1,,,,1082,2461
16,3486,1,,,,1036,2450
16.02,3326,1,,,,1047,2279
16.04,3266,1,,,,1150,2116
16.06,3272,1,,,,1152,2120
16.08,3345,1,,,,1086,2259
16.1,3265,1,,,,1179,2086
16.12,3285,1,,,,1129,2156
16.14,3339,1,,,,1173,2166
16.16,3219,1,,,,1175,2044
16.18,3230,1,,,,1133,2097
16.2,3130,1,,,,1124,2006
16.22,3113,1,,,,1131,1982
16.24,3194,1,,,,1114,2080
16.26,3145,1,,,,1158,1987
16.28,3218,1,,,,1198,2020
16.3,3211,1,,,,1142,2069
16.32,3268,1,,,,1229,2039
16.34,3183,1,,,,1178,2005
16.36,3103,1,,,,1187,1916
16.38,3154,1,,,,1097,2057
16.4,3103,1,,,,1181,1922
16.42,3116,1,,,,1210,1906
16.44,3107,1,,,,1198,1909
16.46,3104,1,,,,1170,1934
16.48,3228,1,,,,1175,2053
16.5,3143,1,,,,1195,1948
16.52,3100,1,,,,1273,1827
16.54,3017,1,,,,1183,1834
16.56,3167,1,,,,1204,1963
16.58,3250,1,,,,1215,2035
16.6,3231,1,,,,1171,2060
16.62,3186,1,,,,1154,2032
16.64,3121,1,,,,1212,1909
16.66,3150,1,,,,1244,1906
16.68,3066,1,,,,1295,1771
16.7,3132,1,,,,1239,1893
16.72,3248,1,,,,1265,1983
16.74,3267,1,,,,1243,2024
16.76,3177,1,,,,1233,1944
16.78,3196,1,,,,1237,1959
16.8,3241,1,,,,1259,1982
16.82,3264,1,,,,1237,2027
16.84,3197,1,,,,1268,1929
16.86,3248,1,,,,1265,1983
16.88,3341,1,,,,1210,2131
16.9,3309,1,,,,1240,2069
16.92,3261,1,,,,1251,2010
16.94,3183,1,,,,1291,1892
16.96,3173,1,,,,1324,1849
16.98,3265,1,,,,1267,1998
17,3247,1,,,,1300,1947
17.02,3255,1,,,,1274,1981
17.04,3230,1,,,,1278,1952
17.06,3262,1,,,,1328,1934
17.08,3391,1,,,,1360,2031
17.1,3412,1,,,,1306,2106
17.12,3422,1,,,,1325,2097
17.14,3363,1,,,,1313,2050
17.16,3422,1,,,,1306,2116
17.18,3510,1,,,,1378,2132
17.2,3540,1,,,,1409,2131
17.22,3511,1,,,,1266,2245
17.24,3652,1,,,,1325,2327
17.26,3617,1,,,,1292,2325
17.28,3711,1,,,,1248,2463
17.3,3654,1,,,,1403,2251
17.32,3840,1,,,,1399,2441
17.34,3907,1,,,,1348,2559
17.36,3976,1,,,,1335,2641
17.38,4068,1,,,,1357,2711
17.4,4182,1,,,,1345,2837
17.42,4187,1,,,,1410,2777
17.44,4485,1,,,,1362,3123
17.46,4634,1,,,,1368,3266
17.48,4802,1,,,,1447,3355
17.5,5004,1,,,,1402,3602
17.52,5395,1,,,,1358,4037
17.54,5790,1,,,,1419,4371
17.56,6213,1,,,,1385,4828
17.58,6763,1,,,,1413,5350
17.6,7516,1,,,,1459,6057
17.62,8614,1,,,,1434,7180
17.64,9714,1,,,,1301,8413
17.66,11213,1,,,,1407,9806
17.68,12888,1,,,,1511,11377
17.7,14789,1,,,,1434,13355
17.72,16362,1,,,,1446,14916
17.74,17719,1,,,,1383,16336
17.76,18634,1,,,,1361,17273
17.78,18415,1,,,,1454,16961
17.8,17319,1,,,,1447,15872
17.82,15153,1,,,,1469,13684
17.84,12891,1,,,,1442,11449
17.86,10807,1,,,,1485,9322
17.88,8905,1,,,,1504,7401
17.9,7542,1,,,,1441,6101
17.92,6483,1,,,,1495,4988
17.94,5898,1,,,,1497,4401
17.96,5408,1,,,,1489,3919
17.98,5018,1,,,,1506,3512
18,4648,1,,,,1503,3145
18.02,4584,1,,,,1470,3114
18.04,4422,1,,,,1486,2936
18.06,4184,1,,,,1501,2683
18.08,4157,1,,,,1554,2603
18.1,4080,1,,,,1505,2575
18.12,4168,1,,,,1548,2620
18.14,3980,1,,,,1547,2433
18.16,4091,1,,,,1544,2547
18.18,3983,1,,,,1536,2447
18.2,3841,1,,,,1515,2326
18.22,3820,1,,,,1586,2234
18.24,3901,1,,,,1522,2379
18.26,3887,1,,,,1545,2342
18.28,3868,1,,,,1564,2304
18.3,3919,1,,,,1581,2338
18.32,3808,1,,,,1558,2250
18.34,3895,1,,,,1573,2322
18.36,3865,1,,,,1603,2262
18.38,3799,1,,,,1627,2172
18.4,3898,1,,,,1605,2293
18.42,3844,1,,,,1571,2273
18.44,3812,1,,,,1585,2227
18.46,3805,1,,,,1549,2256
18.48,3851,1,,,,1628,2223
18.5,3872,1,,,,1666,2206
18.52,3887,1,,,,1653,2234
18.54,3846,1,,,,1587,2259
18.56,3800,1,,,,1584,2216
18.58,3898,1,,,,1606,2292
18.6,3762,1,,,,1625,2137
18.62,3905,1,,,,1658,2247
18.64,3854,1,,,,1657,2197
18.66,3883,1,,,,1622,2261
18.68,3907,1,,,,1664,2243
18.7,3755,1,,,,1622,2133
18.72,3874,1,,,,1676,2198
18.74,3862,1,,,,1686,2176
18.76,3978,1,,,,1630,2348
18.78,3875,1,,,,1634,2241
18.8,3845,1,,,,1674,2171
18.82,3963,1,,,,1589,2374
18.84,3923,1,,,,1620,2303
18.86,3913,1,,,,1703,2210
18.88,3891,1,,,,1675,2216
18.9,3863,1,,,,1769,2094
18.92,3915,1,,,,1655,2260
18.94,3964,1,,,,1669,2295
18.96,3942,1,,,,1701,2241
18.98,4030,1,,,,1708,2322
19,4033,1,,,,1770,2263
19.02,3981,1,,,,1790,2191
19.04,4026,1,,,,1790,2236
19.06,4038,1,,,,1731,2307
19.08,3950,1,,,,1718,2232
19.1,4090,1,,,,1824,2266
19.12,4084,1,,,,1842,2242
19.14,4077,1,,,,1745,2332
19.16,4206,1,,,,1757,2449
19.18,4094,1,,,,1730,2364
19.2,4251,1,,,,1754,2497
19.22,4262,1,,,,1722,2540
19.24,4257,1,,,,1792,2465
19.26,4157,1,,,,1768,2389
19.28,4218,1,,,,1772,2446
19.3,4248,1,,,,1803,2445
19.32,4263,1,,,,1838,2425
19.34,4395,1,,,,1887,2508
19.36,4414,1,,,,1821,2593
19.38,4465,1,,,,1787,2678
19.4,4450,1,,,,1768,2682
19.42,4508,1,,,,1862,2646
19.44,4452,1,,,,1824,2628
19.46,4514,1,,,,1827,2687
19.48,4482,1,,,,1912,2570
19.5,4455,1,,,,1858,2597
19.52,4602,1,,,,1839,2763
19.54,4527,1,,,,1759,2768
19.56,4701,1,,,,1875,2826
19.58,4766,1,,,,1878,2888
19.6,4853,1,,,,1887,2966
19.62,4966,1,,,,1891,3075
19.64,4983,1,,,,1785,3198
19.66,5108,1,,,,1896,3212
19.68,5303,1,,,,1861,3442
19.7,5451,1,,,,1959,3492
19.72,5540,1,,,,1811,3729
19.74,5707,1,,,,1916,3791
19.76,6139,1,,,,1960,4179
19.78,6408,1,,,,1934,4474
19.8,6936,1,,,,1937,4999
19.82,7294,1,,,,1885,5409
19.84,8005,1,,,,1941,6064
19.86,8701,1,,,,1911,6790
19.88,9847,1,,,,1882,7965
19.9,11285,1,,,,1958,9327
19.92,12906,1,,,,1977,10929
19.94,14883,1,,,,1966,12917
19.96,16832,1,,,,1956,14876
19.98,18978,1,,,,1913,17065
20,20555,1,,,,1967,18588
20.02,21241,1,,,,1932,19309
20.04,20857,1,,,,1928,18929
20.06,19271,1,,,,2037,17234
20.08,16986,1,,,,2008,14978
20.1,14651,1,,,,1973,12678
20.12,12319,1,,,,1990,10329
20.14,10211,1,,,,2018,8193
20.16,8826,1,,,,1979,6847
20.18,7693,1,,,,2066,5627
20.2,6874,1,,,,2047,4827
20.22,6345,1,,,,2034,4311
20.24,5928,1,,,,2036,3892
20.26,5670,1,,,,1995,3675
20.28,5548,1,,,,2039,3509
20.3,5299,1,,,,2071,3228
20.32,5202,1,,,,2032,3170
20.34,5037,1,,,,2109,2928
20.36,5036,1,,,,2120,2916
20.38,5059,1,,,,2072,2987
20.4,5102,1,,,,2026,3076
20.42,4986,1,,,,2058,2928
20.44,4830,1,,,,2034,2796
20.46,4877,1,,,,2019,2858
20.48,4932,1,,,,2053,2879
20.5,4805,1,,,,2055,2750
20.52,4792,1,,,,2085,2707
20.54,4803,1,,,,2040,2763
20.56,4719,1,,,,2025,2694
20.58,4782,1,,,,2045,2737
20.6,4744,1,,,,2104,2640
20.62,4814,1,,,,2176,2638
20.64,4750,1,,,,2190,2560
20.66,4731,1,,,,2099,2632
20.68,4732,1,,,,2119,2613
20.7,4845,1,,,,2124,2721
20.72,4811,1,,,,2116,2695
20.74,4741,1,,,,2127,2614
20.76,4743,1,,,,2175,2568
20.78,4718,1,,,,2105,2613
20.8,4825,1,,,,2097,2728
20.82,4681,1,,,,2119,2562
20.84,4719,1,,,,2080,2639
20.86,4864,1,,,,2157,2707
20.88,4835,1,,,,2169,2666
20.9,4818,1,,,,2179,2639
20.92,4764,1,,,,2246,2518
20.94,4732,1,,,,2132,2600
20.96,4718,1,,,,2078,2640
20.98,4745,1,,,,2132,2613
21,4873,1,,,,2205,2668
21.02,4812,1,,,,2219,2593
21.04,4819,1,,,,2261,2558
21.06,4873,1,,,,2174,2699
21.08,4848,1,,,,2191,2657
21.1,4926,1,,,,2211,2715
21.12,4841,1,,,,2208,2633
21.14,4926,1,,,,2166,2760
21.16,4939,1,,,,2211,2728
21.18,4891,1,,,,2232,2659
21.2,4958,1,,,,2185,2773
21.22,4989,1,,,,2214,2775
21.24,4907,1,,,,2248,2659
21.26,4853,1,,,,2250,2603
21.28,4936,1,,,,2224,2712
21.3,4793,1,,,,2208,2585
21.32,4947,1,,,,2230,2717
21.34,4995,1,,,,2193,2802
21.36,4987,1,,,,2216,2771
21.38,5023,1,,,,2126,2897
21.4,5018,1,,,,2220,2798
21.42,4803,1,,,,2214,2589
21.44,4956,1,,,,2224,2732
21.46,4964,1,,,,2235,2729
21.48,4943,1,,,,2254,2689
21.5,4973,1,,,,2327,2646
21.52,4967,1,,,,2202,2765
21.54,5022,1,,,,2258,2764
21.56,5086,1,,,,2263,2823
21.58,5081,1,,,,2263,2818
21.6,5084,1,,,,2291,2793
21.62,4947,1,,,,2337,2610
21.64,5050,1,,,,2342,2708
21.66,5003,1,,,,2248,2755
21.68,5045,1,,,,2290,2755
21.7,5019,1,,,,2305,2714
21.72,5109,1,,,,2239,2870
21.74,5135,1,,,,2257,2878
21.76,5184,1,,,,2276,2908
21.78,5119,1,,,,2370,2749
21.8,5072,1,,,,2329,2743
21.82,5253,1,,,,2262,2991
21.84,5229,1,,,,2270,2959
21.86,5300,1,,,,2232,3068
21.88,5265,1,,,,2319,2946
21.9,5246,1,,,,2348,2898
21.92,5270,1,,,,2301,2969
21.94,5344,1,,,,2289,3055
21.96,5504,1,,,,2312,3192
21.98,5565,1,,,,2351,3214
22,5691,1,,,,2401,3290
22.02,5763,1,,,,2340,3423
22.04,5854,1,,,,2332,3522
22.06,6067,1,,,,2392,3675
22.08,6198,1,,,,2373,3825
22.1,6522,1,,,,2328,4194
22.12,6814,1,,,,2291,4523
22.14,7349,1,,,,2348,5001
22.16,7810,1,,,,2319,5491
22.18,8337,1,,,,2345,5992
22.2,9132,1,,,,2357,6775
22.22,9957,1,,,,2368,7589
22.24,10935,1,,,,2375,8560
22.26,11577,1,,,,2387,9190
22.28,11957,1,,,,2376,9581
22.3,11935,1,,,,2389,9546
22.32,11336,1,,,,2380,8956
22.34,10464,1,,,,2297,8167
22.36,9462,1,,,,2385,7077
22.38,8502,1,,,,2351,6151
22.4,7578,1,,,,2431,5147
22.42,7042,1,,,,2328,4714
22.44,6484,1,,,,2362,4122
22.46,6173,1,,,,2491,3682
22.48,5889,1,,,,2400,3489
22.5,5747,1,,,,2346,3401
22.52,5595,1,,,,2339,3256
22.54,5589,1,,,,2398,3191
22.56,5596,1,,,,2462,3134
22.58,5542,1,,,,2443,3099
22.6,5536,1,,,,2313,3223
22.62,5471,1,,,,2380,3091
22.64,5480,1,,,,2336,3144
22.66,5404,1,,,,2352,3052
22.68,5317,1,,,,2337,2980
22.7,5492,1,,,,2435,3057
22.72,5419,1,,,,2458,2961
22.74,5494,1,,,,2418,3076
22.76,5487,1,,,,2452,3035
22.78,5433,1,,,,2389,3044
22.8,5409,1,,,,2368,3041
22.82,5329,1,,,,2447,2882
22.84,5411,1,,,,2396,3015
22.86,5360,1,,,,2358,3002
22.88,5371,1,,,,2367,3004
22.9,5322,1,,,,2348,2974
22.92,5343,1,,,,2428,2915
22.94,5269,1,,,,2407,2862
22.96,5304,1,,,,2462,2842
22.98,5321,1,,,,2425,2896
23,5302,1,,,,2477,2825
23.02,5341,1,,,,2442,2899
23.04,5254,1,,,,2454,2800
23.06,5233,1,,,,2449,2784
23.08,5210,1,,,,2449,2761
23.1,5348,1,,,,2403,2945
23.12,5272,1,,,,2398,2874
23.14,5327,1,,,,2478,2849
23.16,5386,1,,,,2388,2998
23.18,5401,1,,,,2459,2942
23.2,5364,1,,,,2407,2957
23.22,5277,1,,,,2414,2863
23.24,5146,1,,,,2431,2715
23.26,5274,1,,,,2413,2861
23.28,5200,1,,,,2401,2799
23.3,5332,1,,,,2408,2924
23.32,5328,1,,,,2503,2825
23.34,5320,1,,,,2427,2893
23.36,5405,1,,,,2445,2960
23.38,5374,1,,,,2471,2903
23.4,5417,1,,,,2320,3097
23.42,5356,1,,,,2400,2956
23.44,5347,1,,,,2529,2818
23.46,5426,1,,,,2445,2981
23.48,5478,1,,,,2504,2974
23.5,5341,1,,,,2508,2833
23.52,5381,1,,,,2475,2906
23.54,5386,1,,,,2420,2966
23.56,5353,1,,,,2505,2848
23.58,5362,1,,,,2489,2873
23.6,5369,1,,,,2460,2909
23.62,5417,1,,,,2531,2886
23.64,5414,1,,,,2460,2954
23.66,5468,1,,,,2415,3053
23.68,5336,1,,,,2431,2905
23.7,5356,1,,,,2478,2878
23.72,5339,1,,,,2514,2825
23.74,5485,1,,,,2508,2977
23.76,5447,1,,,,2417,3030
23.78,5286,1,,,,2368,2918
23.8,5402,1,,,,2493,2909
23.82,5410,1,,,,2480,2930
23.84,5301,1,,,,2451,2850
23.86,5412,1,,,,2424,2988
23.88,5385,1,,,,2553,2832
23.9,5399,1,,,,2495,2904
23.92,5380,1,,,,2409,2971
23.94,5445,1,,,,2496,2949
23.96,5531,1,,,,2543,2988
23.98,5449,1,,,,2532,2917
24,5452,1,,,,2517,2935
24.02,5540,1,,,,2492,3048
24.04,5493,1,,,,2439,3054
24.06,5416,1,,,,2455,2961
24.08,5364,1,,,,2446,2918
24.1,5498,1,,,,2427,3071
24.12,5434,1,,,,2442,2992
24.14,5578,1,,,,2434,3144
24.16,5603,1,,,,2423,3180
24.18,5509,1,,,,2426,3083
24.2,5710,1,,,,2490,3220
24.22,5649,1,,,,2448,3201
24.24,5757,1,,,,2396,3361
24.26,5965,1,,,,2488,3477
24.28,5994,1,,,,2500,3494
24.3,6022,1,,,,2444,3578
24.32,6113,1,,,,2466,3647
24.34,6330,1,,,,2425,3905
24.36,6470,1,,,,2546,3924
24.38,6755,1,,,,2414,4341
24.4,7214,1,,,,2408,4806
24.42,7683,1,,,,2423,5260
24.44,8152,1,,,,2439,5713
24.46,8700,1,,,,2443,6257
24.48,9446,1,,,,2420,7026
24.5,10551,1,,,,2453,8098
24.52,11062,1,,,,2482,8580
24.54,11701,1,,,,2427,9274
24.56,11924,1,,,,2472,9452
24.58,11846,1,,,,2485,9361
24.6,11155,1,,,,2460,8695
24.62,10124,1,,,,2461,7663
24.64,9397,1,,,,2523,6874
24.66,8501,1,,,,2448,6053
24.68,7762,1,,,,2500,5262
24.7,7055,1,,,,2510,4545
24.72,6641,1,,,,2530,4111
24.74,6182,1,,,,2497,3685
24.76,6012,1,,,,2504,3508
24.78,5875,1,,,,2485,3390
24.8,5879,1,,,,2478,3401
24.82,5787,1,,,,2500,3287
24.84,5776,1,,,,2493,3283
24.86,5749,1,,,,2481,3268
24.88,5792,1,,,,2516,3276
24.9,5629,1,,,,2495,3134
24.92,5736,1,,,,2396,3340
24.94,5636,1,,,,2475,3161
24.96,5650,1,,,,2468,3182
24.98,5627,1,,,,2507,3120
25,5508,1,,,,2470,3038
25.02,5575,1,,,,2465,3110
25.04,5666,1,,,,2477,3189
25.06,5563,1,,,,2461,3102
25.08,5508,1,,,,2373,3135
25.1,5533,1,,,,2453,3080
25.12,5457,1,,,,2387,3070
25.14,5555,1,,,,2453,3102
25.16,5605,1,,,,2490,3115
25.18,5497,1,,,,2412,3085
25.2,5561,1,,,,2414,3147
25.22,5606,1,,,,2505,3101
25.24,5443,1,,,,2475,2968
25.26,5528,1,,,,2425,3103
25.28,5410,1,,,,2387,3023
25.3,5348,1,,,,2450,2898
25.32,5436,1,,,,2425,3011
25.34,5461,1,,,,2469,2992
25.36,5374,1,,,,2457,2917
25.38,5399,1,,,,2438,2961
25.4,5394,1,,,,2383,3011
25.42,5291,1,,,,2415,2876
25.44,5361,1,,,,2492,2869
25.46,5394,1,,,,2525,2869
25.48,5465,1,,,,2290,3175
25.5,5459,1,,,,2425,3034
25.52,5412,1,,,,2446,2966
25.54,5389,1,,,,2503,2886
25.56,5435,1,,,,2405,3030
25.58,5422,1,,,,2398,3024
25.6,5435,1,,,,2477,2958
25.62,5442,1,,,,2456,2986
25.64,5407,1,,,,2453,2954
25.66,5405,1,,,,2428,2977
25.68,5520,1,,,,2395,3125
25.7,5339,1,,,,2473,2866
25.72,5370,1,,,,2435,2935
25.74,5334,1,,,,2418,2916
25.76,5319,1,,,,2420,2899
25.78,5315,1,,,,2448,2867
25.8,5406,1,,,,2387,3019
25.82,5444,1,,,,2319,3125
25.84,5291,1,,,,2332,2959
25.86,5402,1,,,,2441,2961
25.88,5406,1,,,,2330,3076
25.9,5331,1,,,,2367,2964
25.92,5393,1,,,,2334,3059
25.94,5507,1,,,,2304,3203
25.96,5386,1,,,,2356,3030
25.98,5471,1,,,,2401,3070
26,5349,1,,,,2402,2947
26.02,5374,1,,,,2425,2949
26.04,5414,1,,,,2360,3054
26.06,5363,1,,,,2418,2945
26.08,5420,1,,,,2399,3021
26.1,5328,1,,,,2433,2895
26.12,5416,1,,,,2376,3040
26.14,5435,1,,,,2381,3054
26.16,5459,1,,,,2423,3036
26.18,5400,1,,,,2411,2989
26.2,5507,1,,,,2481,3026
26.22,5490,1,,,,2418,3072
26.24,5539,1,,,,2342,3197
26.26,5567,1,,,,2396,3171
26.28,5568,1,,,,2356,3212
26.3,5520,1,,,,2395,3125
26.32,5490,1,,,,2358,3132
26.34,5613,1,,,,2440,3173
26.36,5600,1,,,,2437,3163
26.38,5570,1,,,,2340,3230
26.4,5513,1,,,,2407,3106
26.42,5619,1,,,,2410,3209
26.44,5598,1,,,,2376,3222
26.46,5523,1,,,,2414,3109
26.48,5545,1,,,,2412,3133
26.5,5613,1,,,,2373,3240
26.52,5678,1,,,,2342,3336
26.54,5638,1,,,,2397,3241
26.56,5640,1,,,,2399,3241
26.58,5719,1,,,,2330,3389
26.6,5714,1,,,,2317,3397
26.62,5719,1,,,,2277,3442
26.64,5696,1,,,,2336,3360
26.66,5773,1,,,,2329,3444
26.68,5934,1,,,,2285,3649
26.7,6071,1,,,,2331,3740
26.72,6279,1,,,,2307,3972
26.74,6602,1,,,,2349,4253
26.76,6925,1,,,,2322,4603
26.78,7172,1,,,,2363,4809
26.8,7466,1,,,,2294,5172
26.82,7673,1,,,,2302,5371
26.84,7781,1,,,,2296,5485
26.86,7778,1,,,,2360,5418
26.88,7547,1,,,,2265,5282
26.9,7332,1,,,,2282,5050
26.92,6970,1,,,,2308,4662
26.94,6564,1,,,,2261,4303
26.96,6348,1,,,,2389,3959
26.98,5973,1,,,,2272,3701
27,5670,1,,,,2310,3360
27.02,5649,1,,,,2322,3327
27.04,5455,1,,,,2329,3126
27.06,5532,1,,,,2370,3162
27.08,5481,1,,,,2341,3140
27.1,5472,1,,,,2404,3068
27.12,5315,1,,,,2371,2944
27.14,5322,1,,,,2277,3045
27.16,5468,1,,,,2196,3272
27.18,5437,1,,,,2280,3157
27.2,5326,1,,,,2385,2941
27.22,5378,1,,,,2302,3076
27.24,5276,1,,,,2334,2942
27.26,5273,1,,,,2347,2926
27.28,5235,1,,,,2392,2843
27.3,5366,1,,,,2381,2985
27.32,5377,1,,,,2297,3080
27.34,5331,1,,,,2381,2950
27.36,5280,1,,,,2278,3002
27.38,5348,1,,,,2259,3089
27.4,5235,1,,,,2288,2947
27.42,5290,1,,,,2269,3021
27.44,5248,1,,,,2295,2953
27.46,5230,1,,,,2324,2906
27.48,5196,1,,,,2361,2835
27.5,5197,1,,,,2299,2898
27.52,5291,1,,,,2294,2997
27.54,5225,1,,,,2301,2924
27.56,5170,1,,,,2212,2958
27.58,5242,1,,,,2294,2948
27.6,5131,1,,,,2262,2869
27.62,5057,1,,,,2303,2754
27.64,5279,1,,,,2279,3000
27.66,5389,1,,,,2321,3068
27.68,5166,1,,,,2206,2960
27.7,5264,1,,,,2273,2991
27.72,5207,1,,,,2232,2975
27.74,5229,1,,,,2226,3003
27.76,5188,1,,,,2274,2914
27.78,5196,1,,,,2220,2976
27.8,5217,1,,,,2243,2974
27.82,5280,1,,,,2239,3041
27.84,5175,1,,,,2261,2914
27.86,5366,1,,,,2313,3053
27.88,5318,1,,,,2212,3106
27.9,5244,1,,,,2303,2941
27.92,5403,1,,,,2224,3179
27.94,5342,1,,,,2316,3026
27.96,5322,1,,,,2293,3029
27.98,5372,1,,,,2268,3104
28,5299,1,,,,2189,3110
28.02,5454,1,,,,2219,3235
28.04,5328,1,,,,2257,3071
28.06,5371,1,,,,2287,3084
28.08,5370,1,,,,2257,3113
28.1,5338,1,,,,2214,3124
28.12,5366,1,,,,2235,3131
28.14,5325,1,,,,2205,3120
28.16,5288,1,,,,2290,2998
28.18,5259,1,,,,2248,3011
28.2,5186,1,,,,2187,2999
28.22,5200,1,,,,2221,2979
28.24,5045,1,,,,2228,2817
28.26,5254,1,,,,2178,3076
28.28,5094,1,,,,2168,2926
28.3,5087,1,,,,2185,2902
28.32,5318,1,,,,2217,3101
28.34,5178,1,,,,2264,2914
28.36,5100,1,,,,2215,2885
28.38,5153,1,,,,2191,2962
28.4,5083,1,,,,2225,2858
28.42,5055,1,,,,2207,2848
28.44,5103,1,,,,2206,2897
28.46,5115,1,,,,2201,2914
28.48,4991,1,,,,2161,2830
28.5,5076,1,,,,2216,2860
28.52,5169,1,,,,2226,2943
28.54,5040,1,,,,2151,2889
28.56,5053,1,,,,2149,2904
28.58,5070,1,,,,2210,2860
28.6,5126,1,,,,2186,2940
28.62,5171,1,,,,2129,3042
28.64,5049,1,,,,2099,2950
28.66,5077,1,,,,2248,2829
28.68,5134,1,,,,2126,3008
28.7,5066,1,,,,2201,2865
28.72,5039,1,,,,2151,2888
28.74,4999,1,,,,2191,2808
28.76,5062,1,,,,2229,2833
28.78,5085,1,,,,2128,2957
28.8,5073,1,,,,2202,2871
28.82,5058,1,,,,2175,2883
28.84,5099,1,,,,2131,2968
28.86,5270,1,,,,2120,3150
28.88,5182,1,,,,2133,3049
28.9,5195,1,,,,2188,3007
28.92,5247,1,,,,2170,3077
28.94,5382,1,,,,2157,3225
28.96,5357,1,,,,2173,3184
28.98,5593,1,,,,2211,3382
29,5827,1,,,,2182,3645
29.02,5979,1,,,,2218,3761
29.04,6308,1,,,,2167,4141
29.06,6431,1,,,,2185,4246
29.08,6721,1,,,,2219,4502
29.1,6863,1,,,,2127,4736
29.12,7058,1,,,,2156,4902
29.14,7192,1,,,,2165,5027
29.16,7139,1,,,,2195,4944
29.18,7020,1,,,,2205,4815
29.2,6679,1,,,,2233,4446
29.22,6560,1,,,,2200,4360
29.24,6044,1,,,,2240,3804
29.26,5832,1,,,,2196,3636
29.28,5513,1,,,,2129,3384
29.3,5424,1,,,,2126,3298
29.32,5380,1,,,,2213,3167
29.34,5196,1,,,,2193,3003
29.36,5225,1,,,,2228,2997
29.38,5224,1,,,,2158,3066
29.4,5156,1,,,,2152,3004
29.42,5175,1,,,,2129,3046
29.44,5248,1,,,,2134,3114
29.46,5270,1,,,,2095,3175
29.48,5317,1,,,,2203,3114
29.5,5121,1,,,,2130,2991
29.52,5157,1,,,,2128,3029
29.54,5305,1,,,,2085,3220
29.56,5267,1,,,,2041,3226
29.58,5161,1,,,,2020,3141
29.6,5290,1,,,,2049,3241
29.62,5396,1,,,,2047,3349
29.64,5257,1,,,,2114,3143
29.66,5315,1,,,,2058,3257
29.68,5370,1,,,,2110,3260
29.7,5329,1,,,,2214,3115
29.72,5309,1,,,,2095,3214
29.74,5363,1,,,,2103,3260
29.76,5373,1,,,,2104,3269
29.78,5240,1,,,,2082,3158
29.8,5279,1,,,,2095,3184
29.82,5223,1,,,,2125,3098
29.84,5191,1,,,,2112,3079
29.86,5175,1,,,,2094,3081
29.88,5139,1,,,,2087,3052
29.9,5196,1,,,,2003,3193
29.92,5221,1,,,,2076,3145
29.94,5064,1,,,,2052,3012
29.96,5120,1,,,,2044,3076
29.98,5203,1,,,,2055,3148
30,5012,1,,,,2019,2993
30.02,5101,1,,,,2114,2987
30.04,5105,1,,,,2106,2999
30.06,5069,1,,,,2077,2992
30.08,5227,1,,,,2053,3174
30.1,5041,1,,,,2091,2950
30.12,5141,1,,,,2054,3087
30.14,5084,1,,,,2013,3071
30.16,4906,1,,,,2063,2843
30.18,4960,1,,,,2068,2892
30.2,4856,1,,,,2086,2770
30.22,4927,1,,,,2111,2816
30.24,4983,1,,,,2123,2860
30.26,4824,1,,,,2091,2733
30.28,4874,1,,,,2051,2823
30.3,4871,1,,,,2078,2793
30.32,4844,1,,,,2020,2824
30.34,4725,1,,,,1998,2727
30.36,4670,1,,,,2043,2627
30.38,4814,1,,,,1955,2859
30.4,4870,1,,,,1956,2914
30.42,4704,1,,,,1933,2771
30.44,4766,1,,,,2029,2737
30.46,4722,1,,,,2025,2697
30.48,4775,1,,,,2065,2710
30.5,4750,1,,,,2012,2738
30.52,4778,1,,,,2078,2700
30.54,4801,1,,,,2009,2792
30.56,4788,1,,,,1996,2792
30.58,4683,1,,,,1995,2688
30.6,4646,1,,,,1975,2671
30.62,4699,1,,,,2014,2685
30.64,4598,1,,,,2010,2588
30.66,4758,1,,,,1945,2813
30.68,4824,1,,,,2008,2816
30.7,4670,1,,,,1956,2714
30.72,4622,1,,,,2019,2603
30.74,4719,1,,,,1995,2724
30.76,4674,1,,,,2017,2657
30.78,4760,1,,,,1993,2767
30.8,4750,1,,,,1943,2807
30.82,4715,1,,,,2025,2690
30.84,4672,1,,,,1954,2718
30.86,4567,1,,,,1929,2638
30.88,4717,1,,,,1914,2803
30.9,4665,1,,,,1886,2779
30.92,4730,1,,,,2000,2730
30.94,4608,1,,,,1921,2687
30.96,4672,1,,,,1943,2729
30.98,4724,1,,,,1982,2742
31,4726,1,,,,1944,2782
31.02,4659,1,,,,1950,2709
31.04,4672,1,,,,1994,2678
31.06,4794,1,,,,1955,2839
31.08,4763,1,,,,1891,2872
31.1,4767,1,,,,1895,2872
31.12,4849,1,,,,1976,2873
31.14,4731,1,,,,1876,2855
31.16,4733,1,,,,1960,2773
31.18,4790,1,,,,1922,2868
31.2,4848,1,,,,1902,2946
31.22,4988,1,,,,1881,3107
31.24,5004,1,,,,1977,3027
31.26,4967,1,,,,1955,3012
31.28,5045,1,,,,1919,3126
31.3,5071,1,,,,1905,3166
31.32,5244,1,,,,1896,3348
31.34,5293,1,,,,1888,3405
31.36,5501,1,,,,1866,3635
31.38,5527,1,,,,1885,3642
31.4,5844,1,,,,1889,3955
31.42,5816,1,,,,1882,3934
31.44,5742,1,,,,1884,3858
31.46,5817,1,,,,1887,3930
31.48,5781,1,,,,1829,3952
31.5,5550,1,,,,1894,3656
31.52,5408,1,,,,1863,3545
31.54,5217,1,,,,1866,3351
31.56,5187,1,,,,1856,3331
31.58,4985,1,,,,1900,3085
31.6,4931,1,,,,1871,3060
31.62,4866,1,,,,1827,3039
31.64,4822,1,,,,1835,2987
31.66,4726,1,,,,1911,2815
31.68,4613,1,,,,1844,2769
31.7,4602,1,,,,1848,2754
31.72,4626,1,,,,1813,2813
31.74,4603,1,,,,1866,2737
31.76,4500,1,,,,1863,2637
31.78,4553,1,,,,1856,2697
31.8,4502,1,,,,1855,2647
31.82,4532,1,,,,1802,2730
31.84,4402,1,,,,1841,2561
31.86,4516,1,,,,1856,2660
31.88,4471,1,,,,1794,2677
31.9,4425,1,,,,1882,2543
31.92,4486,1,,,,1840,2646
31.94,4429,1,,,,1836,2593
31.96,4397,1,,,,1848,2549
31.98,4384,1,,,,1821,2563
32,4421,1,,,,1852,2569
32.02,4464,1,,,,1872,2592
32.04,4404,1,,,,1830,2574
32.06,4337,1,,,,1791,2546
32.08,4348,1,,,,1822,2526
32.1,4403,1,,,,1840,2563
32.12,4334,1,,,,1797,2537
32.14,4462,1,,,,1786,2676
32.16,4447,1,,,,1800,2647
32.18,4377,1,,,,1730,2647
32.2,4385,1,,,,1805,2580
32.22,4401,1,,,,1774,2627
32.24,4350,1,,,,1716,2634
32.26,4386,1,,,,1770,2616
32.28,4393,1,,,,1807,2586
32.3,4412,1,,,,1814,2598
32.32,4596,1,,,,1802,2794
32.34,4440,1,,,,1769,2671
32.36,4342,1,,,,1807,2535
32.38,4308,1,,,,1810,2498
32.4,4432,1,,,,1725,2707
32.42,4469,1,,,,1781,2688
32.44,4352,1,,,,1760,2592
32.46,4349,1,,,,1791,2558
32.48,4380,1,,,,1718,2662
32.5,4529,1,,,,1758,2771
32.52,4403,1,,,,1700,2703
32.54,4379,1,,,,1816,2563
32.56,4371,1,,,,1749,2622
32.58,4385,1,,,,1703,2682
32.6,4362,1,,,,1758,2604
32.62,4354,1,,,,1738,2616
32.64,4428,1,,,,1806,2622
32.66,4409,1,,,,1731,2678
32.68,4426,1,,,,1764,2662
32.7,4476,1,,,,1740,2736
32.72,4394,1,,,,1658,2736
32.74,4241,1,,,,1714,2527
32.76,4298,1,,,,1719,2579
32.78,4152,1,,,,1693,2459
32.8,4330,1,,,,1728,2602
32.82,4309,1,,,,1689,2620
32.84,4417,1,,,,1725,2692
32.86,4388,1,,,,1750,2638
32.88,4330,1,,,,1722,2608
32.9,4269,1,,,,1732,2537
32.92,4297,1,,,,1641,2656
32.94,4256,1,,,,1706,2550
32.96,4287,1,,,,1727,2560
32.98,4345,1,,,,1731,2614
33,4271,1,,,,1704,2567
33.02,4379,1,,,,1657,2722
33.04,4391,1,,,,1641,2750
33.06,4451,1,,,,1614,2837
33.08,4460,1,,,,1686,2774
33.1,4535,1,,,,1677,2858
33.12,4477,1,,,,1673,2804
33.14,4505,1,,,,1669,2836
33.16,4529,1,,,,1686,2843
33.18,4503,1,,,,1655,2848
33.2,4570,1,,,,1689,2881
33.22,4557,1,,,,1674,2883
33.24,4527,1,,,,1623,2904
33.26,4534,1,,,,1647,2887
33.28,4548,1,,,,1672,2876
33.3,4532,1,,,,1656,2876
33.32,4612,1,,,,1662,2950
33.34,4409,1,,,,1622,2787
33.36,4510,1,,,,1606,2904
33.38,4483,1,,,,1614,2869
33.4,4467,1,,,,1644,2823
33.42,4453,1,,,,1620,2833
33.44,4622,1,,,,1593,3029
33.46,4430,1,,,,1631,2799
33.48,4442,1,,,,1618,2824
33.5,4477,1,,,,1644,2833
33.52,4475,1,,,,1613,2862
33.54,4310,1,,,,1644,2666
33.56,4386,1,,,,1597,2789
33.58,4345,1,,,,1618,2727
33.6,4307,1,,,,1559,2748
33.62,4373,1,,,,1616,2757
33.64,4503,1,,,,1611,2892
33.66,4451,1,,,,1573,2878
33.68,4508,1,,,,1642,2866
33.7,4730,1,,,,1589,3141
33.72,4817,1,,,,1575,3242
33.74,4717,1,,,,1552,3165
33.76,4773,1,,,,1595,3178
33.78,4826,1,,,,1577,3249
33.8,4697,1,,,,1602,3095
33.82,4583,1,,,,1618,2965
33.84,4604,1,,,,1561,3043
33.86,4525,1,,,,1572,2953
33.88,4311,1,,,,1626,2685
33.9,4386,1,,,,1573,2813
33.92,4345,1,,,,1496,2849
33.94,4210,1,,,,1537,2673
33.96,4302,1,,,,1528,2774
33.98,4178,1,,,,1564,2614
34,4116,1,,,,1540,2576
34.02,4132,1,,,,1549,2583
34.04,4122,1,,,,1547,2575
34.06,4095,1,,,,1577,2518
34.08,4162,1,,,,1613,2549
34.1,4132,1,,,,1563,2569
34.12,4040,1,,,,1546,2494
34.14,4069,1,,,,1470,2599
34.16,4049,1,,,,1544,2505
34.18,4017,1,,,,1485,2532
34.2,4053,1,,,,1488,2565
34.22,4103,1,,,,1526,2577
34.24,4122,1,,,,1535,2587
34.26,4091,1,,,,1480,2611
34.28,4014,1,,,,1519,2495
34.3,3973,1,,,,1484,2489
34.32,4030,1,,,,1514,2516
34.34,4004,1,,,,1498,2506
34.36,3975,1,,,,1486,2489
34.38,3921,1,,,,1508,2413
34.4,3930,1,,,,1430,2500
34.42,4020,1,,,,1454,2566
34.44,3964,1,,,,1515,2449
34.46,3927,1,,,,1513,2414
34.48,4004,1,,,,1416,2588
34.5,3964,1,,,,1525,2439
34.52,3938,1,,,,1548,2390
34.54,4019,1,,,,1412,2607
34.56,3871,1,,,,1447,2424
34.58,3932,1,,,,1491,2441
34.6,3896,1,,,,1498,2398
34.62,3967,1,,,,1481,2486
34.64,3839,1,,,,1479,2360
34.66,3883,1,,,,1420,2463
34.68,3862,1,,,,1448,2414
34.7,3890,1,,,,1434,2456
34.72,3894,1,,,,1494,2400
34.74,3857,1,,,,1468,2389
34.76,3851,1,,,,1432,2419
34.78,3813,1,,,,1513,2300
34.8,3935,1,,,,1429,2506
34.82,3938,1,,,,1407,2531
34.84,3913,1,,,,1425,2488
34.86,3894,1,,,,1491,2403
34.88,3896,1,,,,1464,2432
34.9,3869,1,,,,1456,2413
34.92,3959,1,,,,1445,2514
34.94,3872,1,,,,1463,2409
34.96,3893,1,,,,1469,2424
34.98,3961,1,,,,1452,2509
35,4028,1,,,,1403,2625
35.02,3914,1,,,,1492,2422
35.04,4019,1,,,,1375,2644
35.06,3950,1,,,,1458,2492
35.08,4067,1,,,,1404,2663
35.1,4083,1,,,,1420,2663
35.12,3979,1,,,,1325,2654
35.14,4056,1,,,,1371,2685
35.16,3991,1,,,,1393,2598
35.18,4161,1,,,,1337,2824
35.2,4119,1,,,,1400,2719
35.22,3964,1,,,,1394,2570
35.24,3940,1,,,,1387,2553
35.26,3934,1,,,,1368,2566
35.28,4108,1,,,,1377,2731
35.3,4057,1,,,,1357,2700
35.32,4000,1,,,,1433,2567
35.34,3973,1,,,,1398,2575
35.36,4012,1,,,,1350,2662
35.38,3928,1,,,,1327,2601
35.4,4017,1,,,,1384,2633
35.42,3992,1,,,,1443,2549
35.44,3941,1,,,,1347,2594
35.46,3920,1,,,,1390,2530
35.48,3929,1,,,,1342,2587
35.5,3900,1,,,,1378,2522
35.52,3896,1,,,,1411,2485
35.54,3869,1,,,,1386,2483
35.56,3917,1,,,,1392,2525
35.58,3878,1,,,,1367,2511
35.6,3873,1,,,,1373,2500
35.62,3873,1,,,,1326,2547
35.64,3895,1,,,,1362,2533
35.66,3738,1,,,,1349,2389
35.68,3826,1,,,,1305,2521
35.7,3908,1,,,,1285,2623
35.72,3817,1,,,,1307,2510
35.74,3901,1,,,,1332,2569
35.76,3790,1,,,,1381,2409
35.78,3899,1,,,,1301,2598
35.8,3925,1,,,,1339,2586
35.82,4001,1,,,,1269,2732
35.84,3997,1,,,,1270,2727
35.86,3990,1,,,,1333,2657
35.88,3982,1,,,,1308,2674
35.9,3905,1,,,,1333,2572
35.92,4028,1,,,,1292,2736
35.94,4011,1,,,,1276,2735
35.96,4042,1,,,,1309,2733
35.98,4034,1,,,,1270,2764
36,4050,1,,,,1249,2801
36.02,4086,1,,,,1311,2775
36.04,4168,1,,,,1258,2910
36.06,4231,1,,,,1235,2996
36.08,4155,1,,,,1320,2835
36.1,4261,1,,,,1314,2947
36.12,4193,1,,,,1358,2835
36.14,4038,1,,,,1240,2798
36.16,4089,1,,,,1276,2813
36.18,4183,1,,,,1288,2895
36.2,4074,1,,,,1239,2835
36.22,4028,1,,,,1274,2754
36.24,3948,1,,,,1319,2629
36.26,3879,1,,,,1335,2544
36.28,3957,1,,,,1317,2640
36.3,3934,1,,,,1307,2627
36.32,3953,1,,,,1298,2655
36.34,3973,1,,,,1261,2712
36.36,3945,1,,,,1271,2674
36.38,3797,1,,,,1253,2544
36.4,3813,1,,,,1247,2566
36.42,3955,1,,,,1246,2709
36.44,3929,1,,,,1254,2675
36.46,4001,1,,,,1191,2810
36.48,3883,1,,,,1195,2688
36.5,3841,1,,,,1240,2601
36.52,3952,1,,,,1235,2717
36.54,3974,1,,,,1256,2718
36.56,4006,1,,,,1192,2814
36.58,3900,1,,,,1209,2691
36.6,3930,1,,,,1282,2648
36.62,3967,1,,,,1233,2734
36.64,4063,1,,,,1204,2859
36.66,3968,1,,,,1229,2739
36.68,4056,1,,,,1225,2831
36.7,4072,1,,,,1252,2820
36.72,3982,1,,,,1176,2806
36.74,4047,1,,,,1241,2806
36.76,4052,1,,,,1253,2799
36.78,4022,1,,,,1214,2808
36.8,4209,1,,,,1174,3035
36.82,4196,1,,,,1169,3027
36.84,4221,1,,,,1214,3007
36.86,4279,1,,,,1215,3064
36.88,4308,1,,,,1193,3115
36.9,4401,1,,,,1153,3248
36.92,4462,1,,,,1184,3278
36.94,4460,1,,,,1253,3207
36.96,4460,1,,,,1237,3223
36.98,4611,1,,,,1200,3411
37,4587,1,,,,1140,3447
37.02,4658,1,,,,1167,3491
37.04,4744,1,,,,1255,3489
37.06,4774,1,,,,1156,3618
37.08,4891,1,,,,1133,3758
37.1,4966,1,,,,1176,3790
37.12,4997,1,,,,1170,3827
37.14,5152,1,,,,1179,3973
37.16,5177,1,,,,1160,4017
37.18,5157,1,,,,1174,3983
37.2,5303,1,,,,1218,4085
37.22,5319,1,,,,1155,4164
37.24,5260,1,,,,1149,4111
37.26,5337,1,,,,1197,4140
37.28,5289,1,,,,1184,4105
37.3,5344,1,,,,1199,4145
37.32,5288,1,,,,1186,4102
37.34,5433,1,,,,1163,4270
37.36,5465,1,,,,1195,4270
37.38,5484,1,,,,1178,4306
37.4,5443,1,,,,1183,4260
37.42,5593,1,,,,1168,4425
37.44,5572,1,,,,1191,4381
37.46,5552,1,,,,1151,4401
37.48,5668,1,,,,1165,4503
37.5,5778,1,,,,1212,4566
37.52,5943,1,,,,1160,4783
37.54,5849,1,,,,1160,4689
37.56,5991,1,,,,1156,4835
37.58,6008,1,,,,1118,4890
37.6,6021,1,,,,1146,4875
37.62,6143,1,,,,1180,4963
37.64,6194,1,,,,1225,4969
37.66,6209,1,,,,1180,5029
37.68,6422,1,,,,1147,5275
37.7,6595,1,,,,1175,5420
37.72,6591,1,,,,1217,5374
37.74,6710,1,,,,1114,5596
37.76,6798,1,,,,1133,5665
37.78,6833,1,,,,1130,5703
37.8,6948,1,,,,1176,5772
37.82,7076,1,,,,1172,5904
37.84,7224,1,,,,1130,6094
37.86,7319,1,,,,1120,6199
37.88,7333,1,,,,1078,6255
37.9,7391,1,,,,1093,6298
37.92,7540,1,,,,1141,6399
37.94,7428,1,,,,1168,6260
37.96,7644,1,,,,1119,6525
37.98,7467,1,,,,1087,6380
38,7665,1,,,,1091,6574
38.02,7656,1,,,,1091,6565
38.04,7645,1,,,,1172,6473
38.06,7590,1,,,,1110,6480
38.08,7573,1,,,,1141,6432
38.1,7390,1,,,,1135,6255
38.12,7310,1,,,,1093,6217
38.14,7241,1,,,,1088,6153
38.16,7048,1,,,,1090,5958
38.18,6967,1,,,,1093,5874
38.2,6952,1,,,,1077,5875
38.22,7004,1,,,,1134,5870
38.24,6778,1,,,,1139,5639
38.26,6552,1,,,,1105,5447
38.28,6529,1,,,,1113,5416
38.3,6389,1,,,,1147,5242
38.32,6330,1,,,,1112,5218
38.34,6255,1,,,,1070,5185
38.36,6355,1,,,,1111,5244
38.38,6325,1,,,,1058,5267
38.4,6428,1,,,,1063,5365
38.42,6351,1,,,,1146,5205
38.44,6433,1,,,,1155,5278
38.46,6322,1,,,,1145,5177
38.48,6155,1,,,,1086,5069
38.5,6042,1,,,,1065,4977
38.52,5864,1,,,,1091,4773
38.54,5657,1,,,,1113,4544
38.56,5492,1,,,,1076,4416
38.58,5333,1,,,,1087,4246
38.6,5237,1,,,,1052,4185
38.62,5180,1,,,,1108,4072
38.64,4985,1,,,,1105,3880
38.66,4894,1,,,,1115,3779
38.68,4907,1,,,,1091,3816
38.7,4780,1,,,,1058,3722
38.72,4701,1,,,,1062,3639
38.74,4696,1,,,,1066,3630
38.76,4641,1,,,,1099,3542
38.78,4524,1,,,,1019,3505
38.8,4620,1,,,,1012,3608
38.82,4624,1,,,,1012,3612
38.84,4579,1,,,,1100,3479
38.86,4491,1,,,,1099,3392
38.88,4407,1,,,,1072,3335
38.9,4451,1,,,,1046,3405
38.92,4425,1,,,,1033,3392
38.94,4431,1,,,,1081,3350
38.96,4448,1,,,,1111,3337
38.98,4517,1,,,,1054,3463
39,4516,1,,,,1049,3467
39.02,4369,1,,,,1056,3313
39.04,4426,1,,,,1077,3349
39.06,4369,1,,,,1087,3282
39.08,4445,1,,,,1050,3395
39.1,4325,1,,,,1089,3236
39.12,4379,1,,,,1083,3296
39.14,4409,1,,,,1056,3353
39.16,4405,1,,,,1077,3328
39.18,4309,1,,,,1032,3277
39.2,4305,1,,,,1037,3268
39.22,4341,1,,,,1043,3298
39.24,4359,1,,,,1076,3283
39.26,4191,1,,,,1122,3069
39.28,4255,1,,,,1130,3125
39.3,4304,1,,,,1075,3229
39.32,4143,1,,,,1037,3106
39.34,4243,1,,,,1072,3171
39.36,4130,1,,,,1072,3058
39.38,4185,1,,,,1074,3111
39.4,4158,1,,,,1060,3098
39.42,4027,1,,,,1063,2964
39.44,4000,1,,,,1070,2930
39.46,4031,1,,,,1044,2987
39.48,3975,1,,,,1048,2927
39.5,3850,1,,,,1078,2772
39.52,3808,1,,,,1044,2764
39.54,3838,1,,,,1042,2796
39.56,3824,1,,,,1063,2761
39.58,3801,1,,,,1038,2763
39.6,3780,1,,,,1024,2756
39.62,3825,1,,,,1041,2784
39.64,3829,1,,,,1003,2826
39.66,3781,1,,,,1035,2746
39.68,3802,1,,,,1070,2732
39.7,3739,1,,,,1043,2696
39.72,3727,1,,,,1098,2629
39.74,3784,1,,,,1083,2701
39.76,3775,1,,,,1099,2676
39.78,3675,1,,,,1041,2634
39.8,3618,1,,,,1069,2549
39.82,3702,1,,,,1047,2655
39.84,3598,1,,,,1065,2533
39.86,3634,1,,,,1012,2622
39.88,3574,1,,,,1064,2510
39.9,3700,1,,,,1052,2648
39.92,3551,1,,,,1059,2492
39.94,3639,1,,,,1019,2620
39.96,3680,1,,,,1037,2643
39.98,3595,1,,,,1006,2589
40,3570,1,,,,1026,2544
40.02,3591,1,,,,1003,2588
40.04,3445,1,,,,1053,2392
40.06,3464,1,,,,1013,2451
40.08,3537,1,,,,1077,2460
40.1,3559,1,,,,1056,2503
40.12,3540,1,,,,1106,2434
40.14,3409,1,,,,1075,2334
40.16,3492,1,,,,1068,2424
40.18,3427,1,,,,1072,2355
40.2,3437,1,,,,1014,2423
40.22,3458,1,,,,1063,2395
40.24,3509,1,,,,1068,2441
40.26,3501,1,,,,1048,2453
40.28,3439,1,,,,1028,2411
40.3,3573,1,,,,1056,2517
40.32,3527,1,,,,1010,2517
40.34,3571,1,,,,1013,2558
40.36,3488,1,,,,1007,2481
40.38,3474,1,,,,992,2482
40.4,3443,1,,,,1051,2392
40.42,3541,1,,,,1029,2512
40.44,3519,1,,,,1040,2479
40.46,3588,1,,,,1014,2574
40.48,3555,1,,,,1023,2532
40.5,3502,1,,,,1040,2462
40.52,3463,1,,,,1061,2402
40.54,3475,1,,,,1041,2434
40.56,3412,1,,,,1048,2364
40.58,3505,1,,,,1063,2442
40.6,3467,1,,,,1070,2397
40.62,3452,1,,,,1040,2412
40.64,3454,1,,,,1040,2414
40.66,3503,1,,,,1070,2433
40.68,3570,1,,,,1048,2522
40.7,3379,1,,,,1034,2345
40.72,3511,1,,,,1019,2492
40.74,3497,1,,,,1014,2483
40.76,3607,1,,,,1068,2539
40.78,3430,1,,,,1043,2387
40.8,3610,1,,,,1032,2578
40.82,3615,1,,,,1029,2586
40.84,3608,1,,,,1011,2597
40.86,3536,1,,,,1059,2477
40.88,3470,1,,,,1023,2447
40.9,3477,1,,,,1077,2400
40.92,3493,1,,,,1042,2451
40.94,3601,1,,,,1038,2563
40.96,3503,1,,,,1058,2445
40.98,3537,1,,,,1041,2496
41,3431,1,,,,1030,2401
41.02,3446,1,,,,1021,2425
41.04,3470,1,,,,1067,2403
41.06,3522,1,,,,1036,2486
41.08,3544,1,,,,1045,2499
41.1,3572,1,,,,1055,2517
41.12,3542,1,,,,999,2543
41.14,3596,1,,,,1033,2563
41.16,3357,1,,,,1013,2344
41.18,3447,1,,,,1031,2416
41.2,3380,1,,,,1038,2342
41.22,3474,1,,,,1049,2425
41.24,3482,1,,,,1039,2443
41.26,3491,1,,,,1037,2454
41.28,3508,1,,,,1009,2499
41.3,3501,1,,,,1041,2460
41.32,3415,1,,,,1088,2327
41.34,3418,1,,,,1066,2352
41.36,3441,1,,,,1078,2363
41.38,3301,1,,,,1020,2281
41.4,3396,1,,,,1048,2348
41.42,3392,1,,,,1095,2297
41.44,3414,1,,,,1080,2334
41.46,3435,1,,,,999,2436
41.48,3311,1,,,,980,2331
41.5,3352,1,,,,1012,2340
41.52,3407,1,,,,1028,2379
41.54,3361,1,,,,1052,2309
41.56,3297,1,,,,1041,2256
41.58,3318,1,,,,1007,2311
41.6,3375,1,,,,1077,2298
41.62,3314,1,,,,1040,2274
41.64,3259,1,,,,1039,2220
41.66,3284,1,,,,1085,2199
41.68,3330,1,,,,979,2351
41.7,3241,1,,,,1069,2172
41.72,3362,1,,,,1055,2307
41.74,3275,1,,,,1021,2254
41.76,3276,1,,,,1062,2214
41.78,3262,1,,,,1075,2187
41.8,3293,1,,,,1021,2272
41.82,3342,1,,,,1009,2333
41.84,3263,1,,,,1057,2206
41.86,3239,1,,,,1026,2213
41.88,3226,1,,,,982,2244
41.9,3279,1,,,,1075,2204
41.92,3357,1,,,,1021,2336
41.94,3305,1,,,,1058,2247
41.96,3275,1,,,,1051,2224
41.98,3355,1,,,,1061,2294
42,3311,1,,,,1035,2276
42.02,3312,1,,,,1065,2247
42.04,3311,1,,,,1007,2304
42.06,3340,1,,,,1062,2278
42.08,3299,1,,,,1038,2261
42.1,3287,1,,,,1081,2206
42.12,3277,1,,,,1039,2238
42.14,3309,1,,,,1045,2264
42.16,3264,1,,,,1008,2256
42.18,3224,1,,,,1001,2223
42.2,3364,1,,,,1011,2353
42.22,3340,1,,,,995,2345
42.24,3310,1,,,,1004,2306
42.26,3288,1,,,,1027,2261
42.28,3282,1,,,,1039,2243
42.3,3232,1,,,,1059,2173
42.32,3356,1,,,,1030,2326
42.34,3371,1,,,,994,2377
42.36,3302,1,,,,1011,2291
42.38,3337,1,,,,1034,2303
42.4,3286,1,,,,1055,2231
42.42,3410,1,,,,973,2437
42.44,3462,1,,,,1018,2444
42.46,3409,1,,,,1098,2311
42.48,3346,1,,,,1070,2276
42.5,3308,1,,,,1050,2258
42.52,3276,1,,,,1043,2233
42.54,3376,1,,,,1043,2333
42.56,3312,1,,,,982,2330
42.58,3418,1,,,,970,2448
42.6,3290,1,,,,1028,2262
42.62,3348,1,,,,1060,2288
42.64,3391,1,,,,1066,2325
42.66,3393,1,,,,1091,2302
42.68,3388,1,,,,1071,2317
42.7,3233,1,,,,1039,2194
42.72,3399,1,,,,1053,2346
42.74,3368,1,,,,1010,2358
42.76,3376,1,,,,1036,2340
42.78,3428,1,,,,1020,2408
42.8,3359,1,,,,1034,2325
42.82,3248,1,,,,999,2249
42.84,3339,1,,,,1008,2331
42.86,3371,1,,,,1016,2355
42.88,3296,1,,,,1042,2254
42.9,3424,1,,,,988,2436
42.92,3326,1,,,,1008,2318
42.94,3350,1,,,,1009,2341
42.96,3410,1,,,,1006,2404
42.98,3339,1,,,,1003,2336
43,3421,1,,,,1056,2365
43.02,3421,1,,,,1003,2418
43.04,3410,1,,,,1004,2406
43.06,3526,1,,,,987,2539
43.08,3575,1,,,,1024,2551
43.1,3541,1,,,,1028,2513
43.12,3580,1,,,,977,2603
43.14,3597,1,,,,1015,2582
43.16,3690,1,,,,1016,2674
43.18,3671,1,,,,1036,2635
43.2,3816,1,,,,980,2836
43.22,3716,1,,,,934,2782
43.24,3707,1,,,,1010,2697
43.26,3656,1,,,,1049,2607
43.28,3800,1,,,,998,2802
43.3,3716,1,,,,1032,2684
43.32,3781,1,,,,1006,2775
43.34,3806,1,,,,978,2828
43.36,3729,1,,,,1032,2697
43.38,3727,1,,,,1058,2669
43.4,3709,1,,,,1046,2663
43.42,3673,1,,,,995,2678
43.44,3748,1,,,,988,2760
43.46,3703,1,,,,960,2743
43.48,3676,1,,,,1018,2658
43.5,3592,1,,,,971,2621
43.52,3674,1,,,,1033,2641
43.54,3668,1,,,,977,2691
43.56,3578,1,,,,990,2588
43.58,3630,1,,,,1010,2620
43.6,3641,1,,,,1004,2637
43.62,3670,1,,,,984,2686
43.64,3668,1,,,,1007,2661
43.66,3631,1,,,,1008,2623
43.68,3648,1,,,,1002,2646
43.7,3569,1,,,,1070,2499
43.72,3635,1,,,,1032,2603
43.74,3641,1,,,,989,2652
43.76,3577,1,,,,972,2605
43.78,3595,1,,,,1003,2592
43.8,3566,1,,,,969,2597
43.82,3576,1,,,,983,2593
43.84,3628,1,,,,989,2639
43.86,3686,1,,,,1022,2664
43.88,3552,1,,,,1032,2520
43.9,3633,1,,,,991,2642
43.92,3640,1,,,,995,2645
43.94,3573,1,,,,992,2581
43.96,3657,1,,,,1017,2640
43.98,3684,1,,,,982,2702
44,3605,1,,,,1004,2601
44.02,3678,1,,,,951,2727
44.04,3699,1,,,,1001,2698
44.06,3697,1,,,,962,2735
44.08,3596,1,,,,1011,2585
44.1,3602,1,,,,972,2630
44.12,3630,1,,,,973,2657
44.14,3707,1,,,,953,2754
44.16,3697,1,,,,1018,2679
44.18,3684,1,,,,987,2697
44.2,3696,1,,,,1028,2668
44.22,3635,1,,,,1001,2634
44.24,3523,1,,,,1057,2466
44.26,3531,1,,,,1007,2524
44.28,3589,1,,,,1041,2548
44.3,3731,1,,,,981,2750
44.32,3574,1,,,,997,2577
44.34,3591,1,,,,965,2626
44.36,3568,1,,,,976,2592
44.38,3609,1,,,,997,2612
44.4,3524,1,,,,970,2554
44.42,3550,1,,,,1011,2539
44.44,3401,1,,,,958,2443
44.46,3453,1,,,,946,2507
44.48,3441,1,,,,932,2509
44.5,3504,1,,,,998,2506
44.52,3522,1,,,,989,2533
44.54,3321,1,,,,977,2344
44.56,3389,1,,,,975,2414
44.58,3374,1,,,,997,2377
44.6,3315,1,,,,940,2375
44.62,3366,1,,,,960,2406
44.64,3310,1,,,,928,2382
44.66,3292,1,,,,957,2335
44.68,3294,1,,,,950,2344
44.7,3325,1,,,,929,2396
44.72,3221,1,,,,983,2238
44.74,3237,1,,,,999,2238
44.76,3267,1,,,,975,2292
44.78,3260,1,,,,954,2306
44.8,3248,1,,,,960,2288
44.82,3341,1,,,,1022,2319
44.84,3176,1,,,,984,2192
44.86,3176,1,,,,1001,2175
44.88,3204,1,,,,979,2225
44.9,3110,1,,,,1004,2106
44.92,3156,1,,,,922,2234
44.94,3083,1,,,,960,2123
44.96,3047,1,,,,972,2075
44.98,3088,1,,,,955,2133
45,3054,1,,,,945,2109
45.02,3058,1,,,,951,2107
45.04,3047,1,,,,941,2106
45.06,3014,1,,,,953,2061
45.08,3023,1,,,,964,2059
45.1,3019,1,,,,987,2032
45.12,3039,1,,,,995,2044
45.14,3105,1,,,,985,2120
45.16,2962,1,,,,981,1981
45.18,3089,1,,,,962,2127
45.2,3051,1,,,,960,2091
45.22,2958,1,,,,970,1988
45.24,2994,1,,,,960,2034
45.26,3141,1,,,,1030,2111
45.28,3015,1,,,,983,2032
45.3,3020,1,,,,987,2033
45.32,3023,1,,,,996,2027
45.34,3059,1,,,,957,2102
45.36,3025,1,,,,970,2055
45.38,3045,1,,,,957,2088
45.4,3062,1,,,,989,2073
45.42,2971,1,,,,951,2020
45.44,2902,1,,,,976,1926
45.46,2942,1,,,,962,1980
45.48,2944,1,,,,990,1954
45.5,3064,1,,,,990,2074
45.52,3101,1,,,,956,2145
45.54,3008,1,,,,919,2089
45.56,2993,1,,,,954,2039
45.58,2913,1,,,,939,1974
45.6,3009,1,,,,938,2071
45.62,3006,1,,,,958,2048
45.64,3015,1,,,,934,2081
45.66,3072,1,,,,939,2133
45.68,3005,1,,,,901,2104
45.7,2955,1,,,,927,2028
45.72,3011,1,,,,967,2044
45.74,2957,1,,,,1003,1954
45.76,2933,1,,,,939,1994
45.78,2876,1,,,,935,1941
45.8,2893,1,,,,914,1979
45.82,2883,1,,,,915,1968
45.84,2850,1,,,,960,1890
45.86,2874,1,,,,924,1950
45.88,2839,1,,,,966,1873
45.9,2857,1,,,,917,1940
45.92,2842,1,,,,948,1894
45.94,2867,1,,,,895,1972
45.96,2844,1,,,,972,1872
45.98,2900,1,,,,928,1972
46,2858,1,,,,959,1899
46.02,2869,1,,,,924,1945
46.04,2832,1,,,,955,1877
46.06,2816,1,,,,1022,1794
46.08,2801,1,,,,999,1802
46.1,2785,1,,,,904,1881
46.12,2875,1,,,,916,1959
46.14,2798,1,,,,952,1846
46.16,2787,1,,,,945,1842
46.18,2819,1,,,,913,1906
46.2,2837,1,,,,877,1960
46.22,2840,1,,,,921,1919
46.24,2847,1,,,,973,1874
46.26,2831,1,,,,955,1876
46.28,2749,1,,,,886,1863
46.3,2779,1,,,,929,1850
46.32,2740,1,,,,900,1840
46.34,2748,1,,,,899,1849
46.36,2729,1,,,,914,1815
46.38,2715,1,,,,876,1839
46.4,2793,1,,,,932,1861
46.42,2820,1,,,,947,1873
46.44,2788,1,,,,973,1815
46.46,2655,1,,,,880,1775
46.48,2725,1,,,,978,1747
46.5,2735,1,,,,925,1810
46.52,2855,1,,,,911,1944
46.54,2746,1,,,,889,1857
46.56,2719,1,,,,879,1840
46.58,2781,1,,,,933,1848
46.6,2780,1,,,,959,1821
46.62,2730,1,,,,869,1861
46.64,2706,1,,,,921,1785
46.66,2665,1,,,,916,1749
46.68,2674,1,,,,906,1768
46.7,2790,1,,,,900,1890
46.72,2711,1,,,,930,1781
46.74,2628,1,,,,909,1719
46.76,2652,1,,,,904,1748
46.78,2653,1,,,,924,1729
46.8,2735,1,,,,944,1791
46.82,2730,1,,,,936,1794
46.84,2685,1,,,,917,1768
46.86,2667,1,,,,950,1717
46.88,2680,1,,,,980,1700
46.9,2727,1,,,,908,1819
46.92,2747,1,,,,889,1858
46.94,2668,1,,,,874,1794
46.96,2638,1,,,,927,1711
46.98,2657,1,,,,931,1726
47,2700,1,,,,890,1810
47.02,2667,1,,,,937,1730
47.04,2599,1,,,,923,1676
47.06,2674,1,,,,892,1782
47.08,2643,1,,,,919,1724
47.1,2650,1,,,,890,1760
47.12,2618,1,,,,931,1687
47.14,2627,1,,,,914,1713
47.16,2657,1,,,,922,1735
47.18,2711,1,,,,974,1737
47.2,2698,1,,,,922,1776
47.22,2620,1,,,,915,1705
47.24,2683,1,,,,875,1808
47.26,2659,1,,,,911,1748
47.28,2648,1,,,,915,1733
47.3,2617,1,,,,927,1690
47.32,2614,1,,,,924,1690
47.34,2632,1,,,,856,1776
47.36,2718,1,,,,886,1832
47.38,2634,1,,,,948,1686
47.4,2645,1,,,,927,1718
47.42,2673,1,,,,898,1775
47.44,2710,1,,,,928,1782
47.46,2724,1,,,,911,1813
47.48,2699,1,,,,962,1737
47.5,2736,1,,,,930,1806
47.52,2750,1,,,,908,1842
47.54,2706,1,,,,895,1811
47.56,2732,1,,,,890,1842
47.58,2677,1,,,,895,1782
47.6,2788,1,,,,897,1891
47.62,2793,1,,,,881,1912
47.64,2770,1,,,,896,1874
47.66,2734,1,,,,899,1835
47.68,2756,1,,,,911,1845
47.7,2767,1,,,,916,1851
47.72,2727,1,,,,917,1810
47.74,2707,1,,,,908,1799
47.76,2724,1,,,,922,1802
47.78,2717,1,,,,902,1815
47.8,2680,1,,,,847,1833
47.82,2731,1,,,,911,1820
47.84,2659,1,,,,882,1777
47.86,2793,1,,,,894,1899
47.88,2812,1,,,,896,1916
47.9,2689,1,,,,903,1786
47.92,2730,1,,,,881,1849
47.94,2775,1,,,,863,1912
47.96,2820,1,,,,909,1911
47.98,2761,1,,,,865,1896
48,2791,1,,,,873,1918
48.02,2715,1,,,,894,1821
48.04,2671,1,,,,905,1766
48.06,2706,1,,,,867,1839
48.08,2755,1,,,,862,1893
48.1,2726,1,,,,916,1810
48.12,2696,1,,,,821,1875
48.14,2686,1,,,,853,1833
48.16,2665,1,,,,910,1755
48.18,2669,1,,,,900,1769
48.2,2655,1,,,,856,1799
48.22,2611,1,,,,912,1699
48.24,2672,1,,,,934,1738
48.26,2570,1,,,,900,1670
48.28,2636,1,,,,870,1766
48.3,2595,1,,,,862,1733
48.32,2565,1,,,,915,1650
48.34,2621,1,,,,866,1755
48.36,2617,1,,,,852,1765
48.38,2682,1,,,,854,1828
48.4,2605,1,,,,907,1698
48.42,2626,1,,,,888,1738
48.44,2628,1,,,,859,1769
48.46,2519,1,,,,915,1604
48.48,2627,1,,,,910,1717
48.5,2691,1,,,,939,1752
48.52,2717,1,,,,880,1837
48.54,2593,1,,,,910,1683
48.56,2580,1,,,,906,1674
48.58,2627,1,,,,905,1722
48.6,2626,1,,,,878,1748
48.62,2620,1,,,,874,1746
48.64,2646,1,,,,853,1793
48.66,2646,1,,,,845,1801
48.68,2623,1,,,,901,1722
48.7,2641,1,,,,906,1735
48.72,2634,1,,,,906,1728
48.74,2633,1,,,,837,1796
48.76,2674,1,,,,886,1788
48.78,2643,1,,,,862,1781
48.8,2604,1,,,,849,1755
48.82,2646,1,,,,799,1847
48.84,2680,1,,,,858,1822
48.86,2567,1,,,,855,1712
48.88,2626,1,,,,849,1777
48.9,2608,1,,,,913,1695
48.92,2566,1,,,,858,1708
48.94,2610,1,,,,840,1770
48.96,2600,1,,,,874,1726
48.98,2598,1,,,,898,1700
49,2481,1,,,,925,1556
49.02,2605,1,,,,905,1700
49.04,2516,1,,,,865,1651
49.06,2620,1,,,,880,1740
49.08,2552,1,,,,846,1706
49.1,2646,1,,,,873,1773
49.12,2675,1,,,,883,1792
49.14,2571,1,,,,858,1713
49.16,2577,1,,,,882,1695
49.18,2615,1,,,,857,1758
49.2,2615,1,,,,872,1743
49.22,2522,1,,,,822,1700
49.24,2533,1,,,,849,1684
49.26,2541,1,,,,873,1668
49.28,2598,1,,,,851,1747
49.3,2509,1,,,,885,1624
49.32,2568,1,,,,829,1739
49.34,2624,1,,,,879,1745
49.36,2546,1,,,,881,1665
49.38,2636,1,,,,843,1793
49.4,2666,1,,,,861,1805
49.42,2567,1,,,,837,1730
49.44,2539,1,,,,905,1634
49.46,2608,1,,,,888,1720
49.48,2543,1,,,,880,1663
49.5,2543,1,,,,838,1705
49.52,2635,1,,,,897,1738
49.54,2583,1,,,,855,1728
49.56,2581,1,,,,884,1697
49.58,2633,1,,,,866,1767
49.6,2551,1,,,,835,1716
49.62,2591,1,,,,838,1753
49.64,2648,1,,,,852,1796
49.66,2625,1,,,,876,1749
49.68,2630,1,,,,852,1778
49.7,2671,1,,,,889,1782
49.72,2625,1,,,,835,1790
49.74,2601,1,,,,866,1735
49.76,2634,1,,,,783,1851
49.78,2662,1,,,,849,1813
49.8,2641,1,,,,883,1758
49.82,2638,1,,,,880,1758
49.84,2684,1,,,,878,1806
49.86,2629,1,,,,822,1807
49.88,2666,1,,,,866,1800
49.9,2594,1,,,,901,1693
49.92,2668,1,,,,841,1827
49.94,2695,1,,,,878,1817
49.96,2688,1,,,,832,1856
49.98,2616,1,,,,875,1741
50,2745,1,,,,859,1886
50.02,2662,1,,,,853,1809
50.04,2703,1,,,,865,1838
50.06,2798,1,,,,881,1917
50.08,2742,1,,,,857,1885
50.1,2635,1,,,,879,1756
50.12,2693,1,,,,828,1865
50.14,2695,1,,,,837,1858
50.16,2635,1,,,,826,1809
50.18,2635,1,,,,841,1794
50.2,2697,1,,,,847,1850
50.22,2671,1,,,,896,1775
50.24,2662,1,,,,857,1805
50.26,2733,1,,,,839,1894
50.28,2637,1,,,,873,1764
50.3,2712,1,,,,842,1870
50.32,2699,1,,,,854,1845
50.34,2649,1,,,,873,1776
50.36,2682,1,,,,817,1865
50.38,2601,1,,,,855,1746
50.4,2590,1,,,,798,1792
50.42,2657,1,,,,815,1842
50.44,2595,1,,,,838,1757
50.46,2717,1,,,,846,1871
50.48,2646,1,,,,880,1766
50.5,2721,1,,,,832,1889
50.52,2633,1,,,,826,1807
50.54,2656,1,,,,881,1775
50.56,2573,1,,,,849,1724
50.58,2589,1,,,,847,1742
50.6,2611,1,,,,873,1738
50.62,2593,1,,,,908,1685
50.64,2593,1,,,,856,1737
50.66,2555,1,,,,811,1744
50.68,2563,1,,,,817,1746
50.7,2484,1,,,,835,1649
50.72,2551,1,,,,874,1677
50.74,2621,1,,,,868,1753
50.76,2580,1,,,,862,1718
50.78,2581,1,,,,858,1723
50.8,2484,1,,,,800,1684
50.82,2450,1,,,,882,1568
50.84,2505,1,,,,859,1646
50.86,2510,1,,,,865,1645
50.88,2605,1,,,,800,1805
50.9,2606,1,,,,782,1824
50.92,2466,1,,,,812,1654
50.94,2514,1,,,,832,1682
50.96,2560,1,,,,847,1713
50.98,2510,1,,,,873,1637
51,2536,1,,,,839,1697
51.02,2508,1,,,,862,1646
51.04,2524,1,,,,782,1742
51.06,2588,1,,,,801,1787
51.08,2472,1,,,,822,1650
51.1,2493,1,,,,829,1664
51.12,2503,1,,,,842,1661
51.14,2462,1,,,,868,1594
51.16,2449,1,,,,823,1626
51.18,2423,1,,,,798,1625
51.2,2485,1,,,,882,1603
51.22,2451,1,,,,866,1585
51.24,2404,1,,,,881,1523
51.26,2371,1,,,,824,1547
51.28,2406,1,,,,851,1555
51.3,2468,1,,,,847,1621
51.32,2451,1,,,,815,1636
51.34,2556,1,,,,780,1776
51.36,2533,1,,,,862,1671
51.38,2430,1,,,,811,1619
51.4,2501,1,,,,814,1687
51.42,2386,1,,,,821,1565
51.44,2415,1,,,,834,1581
51.46,2439,1,,,,828,1611
51.48,2407,1,,,,830,1577
51.5,2460,1,,,,854,1606
51.52,2492,1,,,,843,1649
51.54,2446,1,,,,815,1631
51.56,2423,1,,,,824,1599
51.58,2409,1,,,,843,1566
51.6,2440,1,,,,854,1586
51.62,2404,1,,,,800,1604
51.64,2392,1,,,,835,1557
51.66,2382,1,,,,818,1564
51.68,2335,1,,,,854,1481
51.7,2472,1,,,,805,1667
51.72,2469,1,,,,782,1687
51.74,2459,1,,,,797,1662
51.76,2431,1,,,,839,1592
51.78,2423,1,,,,822,1601
51.8,2325,1,,,,822,1503
51.82,2469,1,,,,820,1649
51.84,2419,1,,,,803,1616
51.86,2426,1,,,,815,1611
51.88,2555,1,,,,818,1737
51.9,2467,1,,,,820,1647
51.92,2412,1,,,,837,1575
51.94,2463,1,,,,815,1648
51.96,2417,1,,,,832,1585
51.98,2393,1,,,,832,1561
52,2378,1,,,,813,1565
52.02,2463,1,,,,860,1603
52.04,2467,1,,,,798,1669
52.06,2445,1,,,,836,1609
52.08,2475,1,,,,836,1639
52.1,2462,1,,,,821,1641
52.12,2444,1,,,,842,1602
52.14,2499,1,,,,872,1627
52.16,2431,1,,,,830,1601
52.18,2497,1,,,,810,1687
52.2,2462,1,,,,839,1623
52.22,2442,1,,,,809,1633
52.24,2484,1,,,,823,1661
52.26,2499,1,,,,842,1657
52.28,2499,1,,,,815,1684
52.3,2527,1,,,,792,1735
52.32,2479,1,,,,859,1620
52.34,2448,1,,,,818,1630
52.36,2495,1,,,,839,1656
52.38,2495,1,,,,843,1652
52.4,2630,1,,,,843,1787
52.42,2434,1,,,,871,1563
52.44,2505,1,,,,806,1699
52.46,2436,1,,,,829,1607
52.48,2445,1,,,,851,1594
52.5,2517,1,,,,879,1638
52.52,2457,1,,,,832,1625
52.54,2471,1,,,,823,1648
52.56,2485,1,,,,856,1629
52.58,2525,1,,,,815,1710
52.6,2488,1,,,,857,1631
52.62,2469,1,,,,869,1600
52.64,2433,1,,,,814,1619
52.66,2445,1,,,,811,1634
52.68,2456,1,,,,839,1617
52.7,2511,1,,,,840,1671
52.72,2455,1,,,,841,1614
52.74,2499,1,,,,853,1646
52.76,2471,1,,,,793,1678
52.78,2468,1,,,,811,1657
52.8,2420,1,,,,840,1580
52.82,2450,1,,,,802,1648
52.84,2561,1,,,,797,1764
52.86,2513,1,,,,818,1695
52.88,2469,1,,,,823,1646
52.9,2451,1,,,,824,1627
52.92,2402,1,,,,846,1556
52.94,2461,1,,,,841,1620
52.96,2415,1,,,,836,1579
52.98,2482,1,,,,832,1650
53,2474,1,,,,840,1634
53.02,2471,1,,,,826,1645
53.04,2441,1,,,,782,1659
53.06,2475,1,,,,812,1663
53.08,2479,1,,,,837,1642
53.1,2490,1,,,,847,1643
53.12,2516,1,,,,798,1718
53.14,2361,1,,,,832,1529
53.16,2366,1,,,,822,1544
53.18,2429,1,,,,848,1581
53.2,2412,1,,,,834,1578
53.22,2404,1,,,,835,1569
53.24,2324,1,,,,815,1509
53.26,2392,1,,,,830,1562
53.28,2482,1,,,,806,1676
53.3,2423,1,,,,815,1608
53.32,2471,1,,,,809,1662
53.34,2438,1,,,,837,1601
53.36,2458,1,,,,819,1639
53.38,2349,1,,,,812,1537
53.4,2425,1,,,,771,1654
53.42,2422,1,,,,863,1559
53.44,2428,1,,,,845,1583
53.46,2416,1,,,,789,1627
53.48,2405,1,,,,860,1545
53.5,2437,1,,,,834,1603
53.52,2413,1,,,,835,1578
53.54,2338,1,,,,820,1518
53.56,2319,1,,,,826,1493
53.58,2375,1,,,,809,1566
53.6,2342,1,,,,829,1513
53.62,2444,1,,,,828,1616
53.64,2394,1,,,,735,1659
53.66,2404,1,,,,781,1623
53.68,2390,1,,,,885,1505
53.7,2369,1,,,,834,1535
53.72,2355,1,,,,827,1528
53.74,2318,1,,,,829,1489
53.76,2358,1,,,,784,1574
53.78,2342,1,,,,799,1543
53.8,2368,1,,,,851,1517
53.82,2381,1,,,,834,1547
53.84,2433,1,,,,826,1607
53.86,2420,1,,,,817,1603
53.88,2394,1,,,,866,1528
53.9,2267,1,,,,858,1409
53.92,2399,1,,,,811,1588
53.94,2331,1,,,,809,1522
53.96,2405,1,,,,799,1606
53.98,2388,1,,,,828,1560
54,2360,1,,,,850,1510
54.02,2327,1,,,,769,1558
54.04,2356,1,,,,834,1522
54.06,2373,1,,,,846,1527
54.08,2426,1,,,,772,1654
54.1,2399,1,,,,823,1576
54.12,2366,1,,,,854,1512
54.14,2369,1,,,,771,1598
54.16,2350,1,,,,788,1562
54.18,2419,1,,,,850,1569
54.2,2456,1,,,,802,1654
54.22,2421,1,,,,840,1581
54.24,2482,1,,,,834,1648
54.26,2467,1,,,,805,1662
54.28,2393,1,,,,787,1606
54.3,2427,1,,,,817,1610
54.32,2398,1,,,,831,1567
54.34,2420,1,,,,809,1611
54.36,2486,1,,,,842,1644
54.38,2461,1,,,,838,1623
54.4,2463,1,,,,804,1659
54.42,2559,1,,,,854,1705
54.44,2489,1,,,,811,1678
54.46,2407,1,,,,810,1597
54.48,2428,1,,,,838,1590
54.5,2417,1,,,,803,1614
54.52,2434,1,,,,815,1619
54.54,2453,1,,,,804,1649
54.56,2515,1,,,,821,1694
54.58,2495,1,,,,843,1652
54.6,2495,1,,,,847,1648
54.62,2381,1,,,,844,1537
54.64,2440,1,,,,825,1615
54.66,2457,1,,,,824,1633
54.68,2463,1,,,,799,1664
54.7,2439,1,,,,840,1599
54.72,2401,1,,,,797,1604
54.74,2455,1,,,,803,1652
54.76,2479,1,,,,763,1716
54.78,2488,1,,,,849,1639
54.8,2412,1,,,,817,1595
54.82,2429,1,,,,821,1608
54.84,2539,1,,,,823,1716
54.86,2436,1,,,,806,1630
54.88,2290,1,,,,808,1482
54.9,2407,1,,,,839,1568
54.92,2426,1,,,,845,1581
54.94,2395,1,,,,791,1604
54.96,2451,1,,,,857,1594
54.98,2420,1,,,,838,1582
55,2336,1,,,,831,1505
55.02,2360,1,,,,815,1545
55.04,2351,1,,,,801,1550
55.06,2476,1,,,,737,1739
55.08,2388,1,,,,801,1587
55.1,2392,1,,,,792,1600
55.12,2404,1,,,,798,1606
55.14,2413,1,,,,831,1582
55.16,2452,1,,,,860,1592
55.18,2392,1,,,,793,1599
55.2,2472,1,,,,812,1660
55.22,2313,1,,,,829,1484
55.24,2397,1,,,,831,1566
55.26,2430,1,,,,858,1572
55.28,2363,1,,,,835,1528
55.3,2364,1,,,,821,1543
55.32,2351,1,,,,822,1529
55.34,2402,1,,,,866,1536
55.36,2455,1,,,,817,1638
55.38,2417,1,,,,813,1604
55.4,2384,1,,,,835,1549
55.42,2476,1,,,,812,1664
55.44,2457,1,,,,814,1643
55.46,2441,1,,,,813,1628
55.48,2427,1,,,,812,1615
55.5,2431,1,,,,842,1589
55.52,2450,1,,,,860,1590
55.54,2462,1,,,,802,1660
55.56,2445,1,,,,814,1631
55.58,2485,1,,,,840,1645
55.6,2379,1,,,,798,1581
55.62,2467,1,,,,802,1665
55.64,2413,1,,,,819,1594
55.66,2360,1,,,,813,1547
55.68,2387,1,,,,821,1566
55.7,2381,1,,,,832,1549
55.72,2380,1,,,,762,1618
55.74,2320,1,,,,819,1501
55.76,2384,1,,,,788,1596
55.78,2369,1,,,,813,1556
55.8,2416,1,,,,844,1572
55.82,2351,1,,,,814,1537
55.84,2371,1,,,,801,1570
55.86,2392,1,,,,794,1598
55.88,2395,1,,,,837,1558
55.9,2348,1,,,,806,1542
55.92,2274,1,,,,814,1460
55.94,2324,1,,,,813,1511
55.96,2357,1,,,,815,1542
55.98,2402,1,,,,777,1625
56,2369,1,,,,808,1561
56.02,2288,1,,,,821,1467
56.04,2305,1,,,,796,1509
56.06,2276,1,,,,799,1477
56.08,2277,1,,,,812,1465
56.1,2366,1,,,,858,1508
56.12,2363,1,,,,882,1481
56.14,2363,1,,,,806,1557
56.16,2348,1,,,,863,1485
56.18,2373,1,,,,826,1547
56.2,2402,1,,,,797,1605
56.22,2245,1,,,,825,1420
56.24,2270,1,,,,792,1478
56.26,2258,1,,,,773,1485
56.28,2344,1,,,,786,1558
56.3,2345,1,,,,789,1556
56.32,2306,1,,,,802,1504
56.34,2415,1,,,,800,1615
56.36,2378,1,,,,827,1551
56.38,2288,1,,,,803,1485
56.4,2348,1,,,,841,1507
56.42,2337,1,,,,800,1537
56.44,2333,1,,,,796,1537
56.46,2381,1,,,,803,1578
56.48,2336,1,,,,809,1527
56.5,2366,1,,,,779,1587
56.52,2361,1,,,,807,1554
56.54,2361,1,,,,830,1531
56.56,2437,1,,,,800,1637
56.58,2446,1,,,,768,1678
56.6,2318,1,,,,831,1487
56.62,2360,1,,,,812,1548
56.64,2405,1,,,,787,1618
56.66,2367,1,,,,805,1562
56.68,2295,1,,,,841,1454
56.7,2355,1,,,,815,1540
56.72,2342,1,,,,807,1535
56.74,2333,1,,,,797,1536
56.76,2370,1,,,,810,1560
56.78,2390,1,,,,787,1603
56.8,2445,1,,,,837,1608
56.82,2441,1,,,,809,1632
56.84,2343,1,,,,840,1503
56.86,2460,1,,,,800,1660
56.88,2402,1,,,,778,1624
56.9,2367,1,,,,836,1531
56.92,2391,1,,,,832,1559
56.94,2380,1,,,,775,1605
56.96,2380,1,,,,772,1608
56.98,2396,1,,,,803,1593
57,2446,1,,,,807,1639
57.02,2500,1,,,,768,1732
57.04,2504,1,,,,802,1702
57.06,2391,1,,,,808,1583
57.08,2374,1,,,,807,1567
57.1,2411,1,,,,785,1626
57.12,2454,1,,,,777,1677
57.14,2383,1,,,,777,1606
57.16,2478,1,,,,775,1703
57.18,2342,1,,,,778,1564
57.2,2454,1,,,,790,1664
57.22,2483,1,,,,801,1682
57.24,2440,1,,,,829,1611
57.26,2366,1,,,,818,1548
57.28,2396,1,,,,869,1527
57.3,2474,1,,,,823,1651
57.32,2402,1,,,,812,1590
57.34,2441,1,,,,829,1612
57.36,2358,1,,,,794,1564
57.38,2366,1,,,,832,1534
57.4,2416,1,,,,790,1626
57.42,2400,1,,,,828,1572
57.44,2415,1,,,,834,1581
57.46,2378,1,,,,773,1605
57.48,2332,1,,,,837,1495
57.5,2361,1,,,,816,1545
57.52,2357,1,,,,831,1526
57.54,2369,1,,,,851,1518
57.56,2260,1,,,,818,1442
57.58,2299,1,,,,799,1500
57.6,2331,1,,,,801,1530
57.62,2333,1,,,,854,1479
57.64,2320,1,,,,798,1522
57.66,2339,1,,,,827,1512
57.68,2283,1,,,,820,1463
57.7,2338,1,,,,855,1483
57.72,2320,1,,,,800,1520
57.74,2271,1,,,,793,1478
57.76,2304,1,,,,801,1503
57.78,2411,1,,,,795,1616
57.8,2401,1,,,,814,1587
57.82,2294,1,,,,820,1474
57.84,2295,1,,,,774,1521
57.86,2316,1,,,,806,1510
57.88,2319,1,,,,850,1469
57.9,2265,1,,,,822,1443
57.92,2357,1,,,,819,1538
57.94,2340,1,,,,820,1520
57.96,2317,1,,,,814,1503
57.98,2323,1,,,,829,1494
58,2342,1,,,,814,1528
58.02,2370,1,,,,803,1567
58.04,2335,1,,,,791,1544
58.06,2318,1,,,,810,1508
58.08,2331,1,,,,812,1519
58.1,2261,1,,,,875,1386
58.12,2352,1,,,,822,1530
58.14,2320,1,,,,790,1530
58.16,2345,1,,,,805,1540
58.18,2352,1,,,,833,1519
58.2,2396,1,,,,805,1591
58.22,2329,1,,,,825,1504
58.24,2296,1,,,,833,1463
58.26,2234,1,,,,826,1408
58.28,2252,1,,,,792,1460
58.3,2274,1,,,,787,1487
58.32,2354,1,,,,849,1505
58.34,2357,1,,,,830,1527
58.36,2271,1,,,,848,1423
58.38,2295,1,,,,853,1442
58.4,2280,1,,,,796,1484
58.42,2335,1,,,,830,1505
58.44,2346,1,,,,795,1551
58.46,2257,1,,,,842,1415
58.48,2362,1,,,,832,1530
58.5,2343,1,,,,804,1539
58.52,2293,1,,,,768,1525
58.54,2221,1,,,,767,1454
58.56,2348,1,,,,777,1571
58.58,2292,1,,,,789,1503
58.6,2347,1,,,,786,1561
58.62,2303,1,,,,847,1456
58.64,2313,1,,,,811,1502
58.66,2328,1,,,,803,1525
58.68,2259,1,,,,807,1452
58.7,2328,1,,,,842,1486
58.72,2338,1,,,,801,1537
58.74,2273,1,,,,805,1468
58.76,2334,1,,,,786,1548
58.78,2365,1,,,,816,1549
58.8,2374,1,,,,858,1516
58.82,2348,1,,,,844,1504
58.84,2365,1,,,,869,1496
58.86,2317,1,,,,796,1521
58.88,2253,1,,,,809,1444
58.9,2247,1,,,,814,1433
58.92,2346,1,,,,801,1545
58.94,2321,1,,,,798,1523
58.96,2428,1,,,,796,1632
58.98,2421,1,,,,874,1547
59,2311,1,,,,802,1509
59.02,2429,1,,,,813,1616
59.04,2413,1,,,,855,1558
59.06,2402,1,,,,790,1612
59.08,2424,1,,,,795,1629
59.1,2388,1,,,,807,1581
59.12,2316,1,,,,855,1461
59.14,2507,1,,,,812,1695
59.16,2404,1,,,,788,1616
59.18,2439,1,,,,798,1641
59.2,2437,1,,,,804,1633
59.22,2406,1,,,,846,1560
59.24,2410,1,,,,806,1604
59.26,2411,1,,,,795,1616
59.28,2366,1,,,,823,1543
59.3,2296,1,,,,805,1491
59.32,2448,1,,,,850,1598
59.34,2417,1,,,,786,1631
59.36,2399,1,,,,809,1590
59.38,2451,1,,,,847,1604
59.4,2416,1,,,,755,1661
59.42,2466,1,,,,799,1667
59.44,2413,1,,,,771,1642
59.46,2381,1,,,,779,1602
59.48,2299,1,,,,803,1496
59.5,2405,1,,,,811,1594
59.52,2388,1,,,,822,1566
59.54,2446,1,,,,802,1644
59.56,2443,1,,,,754,1689
59.58,2402,1,,,,751,1651
59.6,2384,1,,,,858,1526
59.62,2405,1,,,,822,1583
59.64,2334,1,,,,795,1539
59.66,2341,1,,,,852,1489
59.68,2353,1,,,,815,1538
59.7,2423,1,,,,785,1638
59.72,2404,1,,,,827,1577
59.74,2375,1,,,,832,1543
59.76,2380,1,,,,788,1592
59.78,2372,1,,,,768,1604
59.8,2403,1,,,,793,1610
59.82,2384,1,,,,785,1599
59.84,2379,1,,,,772,1607
59.86,2362,1,,,,842,1520
59.88,2356,1,,,,837,1519
59.9,2373,1,,,,808,1565
59.92,2314,1,,,,780,1534
59.94,2347,1,,,,826,1521
59.96,2319,1,,,,810,1509
59.98,2370,1,,,,758,1612
60,2321,1,,,,825,1496
60.02,2354,1,,,,763,1591
60.04,2359,1,,,,787,1572
60.06,2357,1,,,,796,1561
60.08,2319,1,,,,775,1544
60.1,2277,1,,,,836,1441
60.12,2292,1,,,,859,1433
60.14,2377,1,,,,806,1571
60.16,2312,1,,,,769,1543
60.18,2325,1,,,,849,1476
60.2,2282,1,,,,754,1528
60.22,2278,1,,,,791,1487
60.24,2300,1,,,,800,1500
60.26,2278,1,,,,768,1510
60.28,2245,1,,,,817,1428
60.3,2225,1,,,,852,1373
60.32,2320,1,,,,759,1561
60.34,2251,1,,,,827,1424
60.36,2216,1,,,,848,1368
60.38,2239,1,,,,779,1460
60.4,2287,1,,,,815,1472
60.42,2263,1,,,,816,1447
60.44,2308,1,,,,792,1516
60.46,2324,1,,,,793,1531
60.48,2322,1,,,,810,1512
60.5,2343,1,,,,795,1548
60.52,2315,1,,,,829,1486
60.54,2397,1,,,,810,1587
60.56,2307,1,,,,812,1495
60.58,2347,1,,,,820,1527
60.6,2250,1,,,,846,1404
60.62,2311,1,,,,781,1530
60.64,2337,1,,,,783,1554
60.66,2297,1,,,,818,1479
60.68,2229,1,,,,826,1403
60.7,2290,1,,,,821,1469
60.72,2289,1,,,,841,1448
60.74,2270,1,,,,801,1469
60.76,2241,1,,,,792,1449
60.78,2237,1,,,,807,1430
60.8,2304,1,,,,800,1504
60.82,2126,1,,,,763,1363
60.84,2266,1,,,,787,1479
60.86,2294,1,,,,767,1527
60.88,2314,1,,,,778,1536
60.9,2293,1,,,,751,1542
60.92,2252,1,,,,811,1441
60.94,2229,1,,,,817,1412
60.96,2245,1,,,,823,1422
60.98,2309,1,,,,804,1505
61,2328,1,,,,788,1540
61.02,2358,1,,,,745,1613
61.04,2306,1,,,,785,1521
61.06,2307,1,,,,791,1516
61.08,2331,1,,,,832,1499
61.1,2219,1,,,,792,1427
61.12,2184,1,,,,791,1393
61.14,2280,1,,,,776,1504
61.16,2271,1,,,,776,1495
61.18,2263,1,,,,797,1466
61.2,2302,1,,,,783,1519
61.22,2251,1,,,,812,1439
61.24,2126,1,,,,821,1305
61.26,2215,1,,,,821,1394
61.28,2221,1,,,,828,1393
61.3,2306,1,,,,804,1502
61.32,2270,1,,,,803,1467
61.34,2294,1,,,,794,1500
61.36,2197,1,,,,802,1395
61.38,2191,1,,,,802,1389
61.4,2216,1,,,,809,1407
61.42,2269,1,,,,759,1510
61.44,2226,1,,,,797,1429
61.46,2257,1,,,,791,1466
61.48,2238,1,,,,774,1464
61.5,2314,1,,,,851,1463
61.52,2291,1,,,,745,1546
61.54,2279,1,,,,782,1497
61.56,2379,1,,,,788,1591
61.58,2338,1,,,,836,1502
61.6,2287,1,,,,812,1475
61.62,2287,1,,,,804,1483
61.64,2304,1,,,,831,1473
61.66,2314,1,,,,811,1503
61.68,2338,1,,,,785,1553
61.7,2350,1,,,,777,1573
61.72,2317,1,,,,793,1524
61.74,2408,1,,,,828,1580
61.76,2303,1,,,,779,1524
61.78,2320,1,,,,823,1497
61.8,2265,1,,,,797,1468
61.82,2247,1,,,,816,1431
61.84,2293,1,,,,748,1545
61.86,2379,1,,,,772,1607
61.88,2312,1,,,,776,1536
61.9,2279,1,,,,794,1485
61.92,2305,1,,,,809,1496
61.94,2309,1,,,,796,1513
61.96,2293,1,,,,782,1511
61.98,2310,1,,,,807,1503
62,2361,1,,,,768,1593
62.02,2269,1,,,,800,1469
62.04,2298,1,,,,832,1466
62.06,2302,1,,,,827,1475
62.08,2299,1,,,,789,1510
62.1,2282,1,,,,793,1489
62.12,2370,1,,,,768,1602
62.14,2364,1,,,,750,1614
62.16,2203,1,,,,812,1391
62.18,2282,1,,,,823,1459
62.2,2266,1,,,,816,1450
62.22,2303,1,,,,784,1519
62.24,2258,1,,,,770,1488
62.26,2330,1,,,,809,1521
62.28,2194,1,,,,776,1418
62.3,2259,1,,,,780,1479
62.32,2355,1,,,,791,1564
62.34,2305,1,,,,809,1496
62.36,2288,1,,,,788,1500
62.38,2280,1,,,,820,1460
62.4,2284,1,,,,814,1470
62.42,2230,1,,,,755,1475
62.44,2271,1,,,,796,1475
62.46,2264,1,,,,777,1487
62.48,2262,1,,,,743,1519
62.5,2301,1,,,,781,1520
62.52,2287,1,,,,794,1493
62.54,2292,1,,,,776,1516
62.56,2364,1,,,,766,1598
62.58,2381,1,,,,775,1606
62.6,2298,1,,,,778,1520
62.62,2287,1,,,,776,1511
62.64,2173,1,,,,811,1362
62.66,2290,1,,,,789,1501
62.68,2303,1,,,,802,1501
62.7,2346,1,,,,801,1545
62.72,2351,1,,,,828,1523
62.74,2276,1,,,,805,1471
62.76,2321,1,,,,783,1538
62.78,2326,1,,,,777,1549
62.8,2232,1,,,,779,1453
62.82,2281,1,,,,771,1510
62.84,2251,1,,,,757,1494
62.86,2323,1,,,,792,1531
62.88,2349,1,,,,752,1597
62.9,2306,1,,,,789,1517
62.92,2362,1,,,,806,1556
62.94,2257,1,,,,800,1457
62.96,2312,1,,,,827,1485
62.98,2337,1,,,,754,1583
63,2302,1,,,,743,1559
63.02,2282,1,,,,775,1507
63.04,2327,1,,,,723,1604
63.06,2315,1,,,,788,1527
63.08,2278,1,,,,759,1519
63.1,2331,1,,,,768,1563
63.12,2312,1,,,,831,1481
63.14,2314,1,,,,773,1541
63.16,2347,1,,,,777,1570
63.18,2276,1,,,,818,1458
63.2,2278,1,,,,789,1489
63.22,2305,1,,,,758,1547
63.24,2297,1,,,,793,1504
63.26,2170,1,,,,797,1373
63.28,2220,1,,,,782,1438
63.3,2258,1,,,,796,1462
63.32,2283,1,,,,776,1507
63.34,2286,1,,,,771,1515
63.36,2274,1,,,,769,1505
63.38,2231,1,,,,751,1480
63.4,2206,1,,,,809,1397
63.42,2319,1,,,,758,1561
63.44,2310,1,,,,771,1539
63.46,2283,1,,,,802,1481
63.48,2336,1,,,,753,1583
63.5,2299,1,,,,843,1456
63.52,2271,1,,,,818,1453
63.54,2252,1,,,,773,1479
63.56,2326,1,,,,783,1543
63.58,2343,1,,,,783,1560
63.6,2281,1,,,,825,1456
63.62,2313,1,,,,813,1500
63.64,2267,1,,,,762,1505
63.66,2253,1,,,,752,1501
63.68,2325,1,,,,771,1554
63.7,2319,1,,,,787,1532
63.72,2345,1,,,,766,1579
63.74,2401,1,,,,758,1643
63.76,2361,1,,,,760,1601
63.78,2348,1,,,,787,1561
63.8,2352,1,,,,796,1556
63.82,2449,1,,,,757,1692
63.84,2379,1,,,,772,1607
63.86,2458,1,,,,759,1699
63.88,2458,1,,,,764,1694
63.9,2348,1,,,,757,1591
63.92,2417,1,,,,820,1597
63.94,2433,1,,,,804,1629
63.96,2438,1,,,,799,1639
63.98,2494,1,,,,758,1736
64,2395,1,,,,788,1607
64.02,2513,1,,,,829,1684
64.04,2456,1,,,,816,1640
64.06,2568,1,,,,770,1798
64.08,2512,1,,,,768,1744
64.1,2516,1,,,,769,1747
64.12,2484,1,,,,744,1740
64.14,2470,1,,,,801,1669
64.16,2575,1,,,,795,1780
64.18,2569,1,,,,727,1842
64.2,2646,1,,,,712,1934
64.22,2632,1,,,,788,1844
64.24,2631,1,,,,836,1795
64.26,2617,1,,,,746,1871
64.28,2656,1,,,,779,1877
64.3,2690,1,,,,780,1910
64.32,2656,1,,,,755,1901
64.34,2670,1,,,,754,1916
64.36,2686,1,,,,827,1859
64.38,2714,1,,,,820,1894
64.4,2676,1,,,,789,1887
64.42,2649,1,,,,774,1875
64.44,2712,1,,,,751,1961
64.46,2603,1,,,,736,1867
64.48,2638,1,,,,757,1881
64.5,2680,1,,,,773,1907
64.52,2698,1,,,,769,1929
64.54,2621,1,,,,790,1831
64.56,2625,1,,,,780,1845
64.58,2663,1,,,,786,1877
64.6,2719,1,,,,779,1940
64.62,2555,1,,,,718,1837
64.64,2579,1,,,,742,1837
64.66,2534,1,,,,764,1770
64.68,2471,1,,,,766,1705
64.7,2578,1,,,,808,1770
64.72,2515,1,,,,776,1739
64.74,2442,1,,,,751,1691
64.76,2488,1,,,,816,1672
64.78,2555,1,,,,785,1770
64.8,2522,1,,,,727,1795
64.82,2473,1,,,,757,1716
64.84,2415,1,,,,814,1601
64.86,2422,1,,,,816,1606
64.88,2443,1,,,,742,1701
64.9,2382,1,,,,783,1599
64.92,2336,1,,,,826,1510
64.94,2460,1,,,,706,1754
64.96,2426,1,,,,716,1710
64.98,2406,1,,,,748,1658
65,2394,1,,,,775,1619
65.02,2383,1,,,,821,1562
65.04,2341,1,,,,766,1575
65.06,2385,1,,,,796,1589
65.08,2327,1,,,,746,1581
65.1,2269,1,,,,736,1533
65.12,2296,1,,,,720,1576
65.14,2398,1,,,,827,1571
65.16,2361,1,,,,793,1568
65.18,2352,1,,,,753,1599
65.2,2327,1,,,,764,1563
65.22,2353,1,,,,757,1596
65.24,2321,1,,,,717,1604
65.26,2305,1,,,,752,1553
65.28,2340,1,,,,730,1610
65.3,2235,1,,,,716,1519
65.32,2229,1,,,,685,1544
65.34,2244,1,,,,728,1516
65.36,2237,1,,,,794,1443
65.38,2363,1,,,,734,1629
65.4,2273,1,,,,719,1554
65.42,2304,1,,,,711,1593
65.44,2211,1,,,,753,1458
65.46,2249,1,,,,747,1502
65.48,2195,1,,,,752,1443
65.5,2229,1,,,,723,1506
65.52,2192,1,,,,722,1470
65.54,2219,1,,,,719,1500
65.56,2156,1,,,,740,1416
65.58,2189,1,,,,754,1435
65.6,2233,1,,,,769,1464
65.62,2204,1,,,,752,1452
65.64,2190,1,,,,745,1445
65.66,2287,1,,,,747,1540
65.68,2252,1,,,,763,1489
65.7,2249,1,,,,749,1500
65.72,2209,1,,,,717,1492
65.74,2260,1,,,,767,1493
65.76,2170,1,,,,795,1375
65.78,2154,1,,,,753,1401
65.8,2225,1,,,,752,1473
65.82,2270,1,,,,771,1499
65.84,2171,1,,,,734,1437
65.86,2251,1,,,,722,1529
65.88,2188,1,,,,726,1462
65.9,2198,1,,,,738,1460
65.92,2230,1,,,,746,1484
65.94,2152,1,,,,732,1420
65.96,2186,1,,,,734,1452
65.98,2202,1,,,,762,1440
66,2166,1,,,,790,1376
66.02,2119,1,,,,731,1388
66.04,2136,1,,,,748,1388
66.06,2103,1,,,,772,1331
66.08,2127,1,,,,746,1381
66.1,2178,1,,,,706,1472
66.12,2195,1,,,,719,1476
66.14,2124,1,,,,735,1389
66.16,2125,1,,,,753,1372
66.18,2130,1,,,,734,1396
66.2,2157,1,,,,735,1422
66.22,2165,1,,,,764,1401
66.24,2157,1,,,,742,1415
66.26,2144,1,,,,742,1402
66.28,2119,1,,,,728,1391
66.3,2190,1,,,,724,1466
66.32,2104,1,,,,742,1362
66.34,2161,1,,,,767,1394
66.36,2120,1,,,,738,1382
66.38,2150,1,,,,678,1472
66.4,2093,1,,,,725,1368
66.42,2106,1,,,,744,1362
66.44,2157,1,,,,764,1393
66.46,2173,1,,,,762,1411
66.48,2179,1,,,,713,1466
66.5,2208,1,,,,724,1484
66.52,2173,1,,,,724,1449
66.54,2098,1,,,,745,1353
66.56,2132,1,,,,762,1370
66.58,2194,1,,,,735,1459
66.6,2215,1,,,,727,1488
66.62,2161,1,,,,728,1433
66.64,2236,1,,,,734,1502
66.66,2154,1,,,,737,1417
66.68,2074,1,,,,717,1357
66.7,2167,1,,,,704,1463
66.72,2202,1,,,,732,1470
66.74,2216,1,,,,747,1469
66.76,2157,1,,,,680,1477
66.78,2133,1,,,,750,1383
66.8,2177,1,,,,733,1444
66.82,2151,1,,,,713,1438
66.84,2169,1,,,,755,1414
66.86,2173,1,,,,756,1417
66.88,2193,1,,,,729,1464
66.9,2133,1,,,,772,1361
66.92,2141,1,,,,741,1400
66.94,2149,1,,,,710,1439
66.96,2130,1,,,,712,1418
66.98,2178,1,,,,716,1462
67,2127,1,,,,717,1410
67.02,2101,1,,,,773,1328
67.04,2134,1,,,,723,1411
67.06,2081,1,,,,712,1369
67.08,2091,1,,,,740,1351
67.1,2103,1,,,,739,1364
67.12,2108,1,,,,710,1398
67.14,2084,1,,,,730,1354
67.16,2091,1,,,,733,1358
67.18,2101,1,,,,688,1413
67.2,2146,1,,,,693,1453
67.22,2119,1,,,,724,1395
67.24,2078,1,,,,747,1331
67.26,2121,1,,,,720,1401
67.28,2092,1,,,,724,1368
67.3,2110,1,,,,711,1399
67.32,2082,1,,,,717,1365
67.34,2060,1,,,,718,1342
67.36,2081,1,,,,716,1365
67.38,2087,1,,,,697,1390
67.4,2143,1,,,,699,1444
67.42,2078,1,,,,731,1347
67.44,2049,1,,,,713,1336
67.46,2107,1,,,,691,1416
67.48,2078,1,,,,720,1358
67.5,2041,1,,,,728,1313
67.52,2097,1,,,,729,1368
67.54,2062,1,,,,660,1402
67.56,2084,1,,,,696,1388
67.58,2068,1,,,,695,1373
67.6,2073,1,,,,735,1338
67.62,2086,1,,,,724,1362
67.64,1989,1,,,,732,1257
67.66,2089,1,,,,711,1378
67.68,2106,1,,,,687,1419
67.7,2094,1,,,,705,1389
67.72,2064,1,,,,696,1368
67.74,2038,1,,,,716,1322
67.76,2138,1,,,,740,1398
67.78,2052,1,,,,698,1354
67.8,2048,1,,,,722,1326
67.82,2088,1,,,,743,1345
67.84,2019,1,,,,749,1270
67.86,2152,1,,,,694,1458
67.88,1977,1,,,,728,1249
67.9,2002,1,,,,698,1304
67.92,2010,1,,,,704,1306
67.94,2039,1,,,,711,1328
67.96,2037,1,,,,700,1337
67.98,2043,1,,,,677,1366
68,2036,1,,,,707,1329
68.02,2070,1,,,,699,1371
68.04,1975,1,,,,744,1231
68.06,2006,1,,,,715,1291
68.08,2040,1,,,,689,1351
68.1,1980,1,,,,720,1260
68.12,1934,1,,,,725,1209
68.14,2014,1,,,,709,1305
68.16,1990,1,,,,691,1299
68.18,2047,1,,,,769,1278
68.2,1987,1,,,,674,1313
68.22,2004,1,,,,686,1318
68.24,2003,1,,,,711,1292
68.26,2050,1,,,,679,1371
68.28,2075,1,,,,674,1401
68.3,2069,1,,,,693,1376
68.32,1942,1,,,,725,1217
68.34,1998,1,,,,716,1282
68.36,1983,1,,,,702,1281
68.38,2070,1,,,,746,1324
68.4,2005,1,,,,707,1298
68.42,2072,1,,,,722,1350
68.44,2073,1,,,,714,1359
68.46,2014,1,,,,691,1323
68.48,2008,1,,,,754,1254
68.5,2104,1,,,,730,1374
68.52,1993,1,,,,693,1300
68.54,2011,1,,,,693,1318
68.56,2012,1,,,,659,1353
68.58,2011,1,,,,676,1335
68.6,1939,1,,,,686,1253
68.62,2057,1,,,,665,1392
68.64,2007,1,,,,659,1348
68.66,1927,1,,,,693,1234
68.68,1982,1,,,,679,1303
68.7,2012,1,,,,690,1322
68.72,1977,1,,,,680,1297
68.74,1970,1,,,,712,1258
68.76,2023,1,,,,703,1320
68.78,2078,1,,,,700,1378
68.8,2004,1,,,,685,1319
68.82,2019,1,,,,684,1335
68.84,2015,1,,,,691,1324
68.86,2051,1,,,,716,1335
68.88,2020,1,,,,671,1349
68.9,1951,1,,,,680,1271
68.92,1996,1,,,,645,1351
68.94,2046,1,,,,665,1381
68.96,2037,1,,,,702,1335
68.98,2026,1,,,,723,1303
69,1994,1,,,,688,1306
69.02,2002,1,,,,684,1318
69.04,1980,1,,,,757,1223
69.06,2050,1,,,,651,1399
69.08,2019,1,,,,655,1364
69.1,2066,1,,,,705,1361
69.12,1987,1,,,,663,1324
69.14,1995,1,,,,680,1315
69.16,1969,1,,,,663,1306
69.18,2045,1,,,,679,1366
69.2,2011,1,,,,669,1342
69.22,1982,1,,,,687,1295
69.24,2017,1,,,,705,1312
69.26,2011,1,,,,689,1322
69.28,1989,1,,,,660,1329
69.3,2019,1,,,,646,1373
69.32,2040,1,,,,666,1374
69.34,2020,1,,,,658,1362
69.36,1997,1,,,,686,1311
69.38,2032,1,,,,671,1361
69.4,2082,1,,,,704,1378
69.42,2067,1,,,,672,1395
69.44,1957,1,,,,693,1264
69.46,1998,1,,,,665,1333
69.48,1996,1,,,,684,1312
69.5,2000,1,,,,633,1367
69.52,1991,1,,,,687,1304
69.54,2008,1,,,,637,1371
69.56,2007,1,,,,663,1344
69.58,2066,1,,,,701,1365
69.6,1969,1,,,,687,1282
69.62,1995,1,,,,680,1315
69.64,1968,1,,,,659,1309
69.66,1983,1,,,,667,1316
69.68,2030,1,,,,646,1384
69.7,1980,1,,,,664,1316
69.72,1957,1,,,,651,1306
69.74,2041,1,,,,709,1332
69.76,1959,1,,,,678,1281
69.78,1947,1,,,,684,1263
69.8,1958,1,,,,663,1295
69.82,1949,1,,,,630,1319
69.84,1973,1,,,,680,1293
69.86,1951,1,,,,650,1301
69.88,1911,1,,,,734,1177
69.9,2039,1,,,,708,1331
69.92,1931,1,,,,708,1223
69.94,1885,1,,,,712,1173
69.96,2001,1,,,,628,1373
69.98,1936,1,,,,638,1298
70,1992,1,,,,676,1316
70.02,1989,1,,,,664,1325
70.04,1935,1,,,,650,1285
70.06,1894,1,,,,644,1250
70.08,1879,1,,,,645,1234
70.1,1910,1,,,,713,1197
70.12,1938,1,,,,668,1270
70.14,1910,1,,,,674,1236
70.16,1933,1,,,,675,1258
70.18,1915,1,,,,638,1277
70.2,1993,1,,,,676,1317
70.22,1963,1,,,,695,1268
70.24,1934,1,,,,657,1277
70.26,1887,1,,,,655,1232
70.28,1968,1,,,,637,1331
70.3,1959,1,,,,682,1277
70.32,1967,1,,,,686,1281
70.34,1962,1,,,,626,1336
70.36,1896,1,,,,656,1240
70.38,1924,1,,,,674,1250
70.4,1925,1,,,,634,1291
70.42,1899,1,,,,651,1248
70.44,1967,1,,,,669,1298
70.46,2000,1,,,,705,1295
70.48,1957,1,,,,645,1312
70.5,1881,1,,,,656,1225
70.52,1944,1,,,,663,1281
70.54,1875,1,,,,670,1205
70.56,1878,1,,,,658,1220
70.58,1938,1,,,,673,1265
70.6,1962,1,,,,665,1297
70.62,1852,1,,,,669,1183
70.64,1939,1,,,,659,1280
70.66,1899,1,,,,670,1229
70.68,1920,1,,,,691,1229
70.7,1845,1,,,,644,1201
70.72,1928,1,,,,658,1270
70.74,1923,1,,,,664,1259
70.76,1941,1,,,,630,1311
70.78,1891,1,,,,685,1206
70.8,1880,1,,,,630,1250
70.82,1854,1,,,,620,1234
70.84,1937,1,,,,683,1254
70.86,1932,1,,,,617,1315
70.88,1854,1,,,,650,1204
70.9,1884,1,,,,685,1199
70.92,1950,1,,,,646,1304
70.94,1919,1,,,,652,1267
70.96,1935,1,,,,698,1237
70.98,1909,1,,,,623,1286
71,1902,1,,,,647,1255
71.02,1855,1,,,,644,1211
71.04,1835,1,,,,610,1225
71.06,1902,1,,,,635,1267
71.08,1929,1,,,,654,1275
71.1,1947,1,,,,623,1324
71.12,1889,1,,,,650,1239
71.14,1897,1,,,,684,1213
71.16,1963,1,,,,673,1290
71.18,1890,1,,,,643,1247
71.2,1946,1,,,,621,1325
71.22,1987,1,,,,636,1351
71.24,1932,1,,,,621,1311
71.26,1966,1,,,,655,1311
71.28,1960,1,,,,631,1329
71.3,1916,1,,,,632,1284
71.32,1943,1,,,,666,1277
71.34,1926,1,,,,640,1286
71.36,1867,1,,,,664,1203
71.38,1929,1,,,,684,1245
71.4,1816,1,,,,665,1151
71.42,1831,1,,,,663,1168
71.44,1921,1,,,,641,1280
71.46,1875,1,,,,611,1264
71.48,1833,1,,,,672,1161
71.5,1866,1,,,,662,1204
71.52,1800,1,,,,625,1175
71.54,1837,1,,,,660,1177
71.56,1977,1,,,,666,1311
71.58,1900,1,,,,599,1301
71.6,1897,1,,,,625,1272
71.62,1800,1,,,,691,1109
71.64,1903,1,,,,638,1265
71.66,1841,1,,,,629,1212
71.68,1876,1,,,,662,1214
71.7,1855,1,,,,659,1196
71.72,1819,1,,,,659,1160
71.74,1909,1,,,,645,1264
71.76,1865,1,,,,637,1228
71.78,1896,1,,,,629,1267
71.8,1902,1,,,,631,1271
71.82,1868,1,,,,630,1238
71.84,1795,1,,,,652,1143
71.86,1900,1,,,,634,1266
71.88,1843,1,,,,616,1227
71.9,1872,1,,,,635,1237
71.92,1878,1,,,,626,1252
71.94,1873,1,,,,630,1243
71.96,1797,1,,,,606,1191
71.98,1858,1,,,,649,1209
72,1832,1,,,,644,1188
72.02,1866,1,,,,631,1235
72.04,1865,1,,,,631,1234
72.06,1877,1,,,,634,1243
72.08,1835,1,,,,616,1219
72.1,1884,1,,,,645,1239
72.12,1923,1,,,,626,1297
72.14,1910,1,,,,635,1275
72.16,1836,1,,,,620,1216
72.18,1859,1,,,,670,1189
72.2,1885,1,,,,635,1250
72.22,1833,1,,,,638,1195
72.24,1815,1,,,,629,1186
72.26,1826,1,,,,634,1192
72.28,1826,1,,,,657,1169
72.3,1812,1,,,,613,1199
72.32,1825,1,,,,616,1209
72.34,1826,1,,,,644,1182
72.36,1751,1,,,,611,1140
72.38,1765,1,,,,649,1116
72.4,1780,1,,,,597,1183
72.42,1866,1,,,,597,1269
72.44,1789,1,,,,639,1150
72.46,1761,1,,,,652,1109
72.48,1793,1,,,,630,1163
72.5,1814,1,,,,645,1169
72.52,1810,1,,,,617,1193
72.54,1841,1,,,,634,1207
72.56,1856,1,,,,613,1243
72.58,1806,1,,,,597,1209
72.6,1852,1,,,,602,1250
72.62,1828,1,,,,584,1244
72.64,1827,1,,,,631,1196
72.66,1876,1,,,,635,1241
72.68,1849,1,,,,599,1250
72.7,1841,1,,,,560,1281
72.72,1754,1,,,,617,1137
72.74,1860,1,,,,641,1219
72.76,1823,1,,,,609,1214
72.78,1749,1,,,,615,1134
72.8,1853,1,,,,643,1210
72.82,1804,1,,,,625,1179
72.84,1852,1,,,,603,1249
72.86,1815,1,,,,650,1165
72.88,1793,1,,,,583,1210
72.9,1777,1,,,,662,1115
72.92,1798,1,,,,661,1137
72.94,1749,1,,,,637,1112
72.96,1817,1,,,,666,1151
72.98,1760,1,,,,619,1141
73,1750,1,,,,655,1095
73.02,1790,1,,,,621,1169
73.04,1807,1,,,,646,1161
73.06,1774,1,,,,652,1122
73.08,1728,1,,,,621,1107
73.1,1672,1,,,,574,1098
73.12,1761,1,,,,609,1152
73.14,1724,1,,,,610,1114
73.16,1789,1,,,,603,1186
73.18,1754,1,,,,618,1136
73.2,1843,1,,,,642,1201
73.22,1755,1,,,,646,1109
73.24,1822,1,,,,618,1204
73.26,1776,1,,,,642,1134
73.28,1828,1,,,,596,1232
73.3,1780,1,,,,571,1209
73.32,1786,1,,,,579,1207
73.34,1766,1,,,,579,1187
73.36,1831,1,,,,601,1230
73.38,1749,1,,,,635,1114
73.4,1829,1,,,,611,1218
73.42,1771,1,,,,630,1141
73.44,1777,1,,,,608,1169
73.46,1754,1,,,,590,1164
73.48,1838,1,,,,578,1260
73.5,1727,1,,,,639,1088
73.52,1688,1,,,,570,1118
73.54,1728,1,,,,588,1140
73.56,1774,1,,,,625,1149
73.58,1713,1,,,,643,1070
73.6,1701,1,,,,611,1090
73.62,1791,1,,,,602,1189
73.64,1781,1,,,,612,1169
73.66,1807,1,,,,623,1184
73.68,1767,1,,,,625,1142
73.7,1754,1,,,,605,1149
73.72,1780,1,,,,610,1170
73.74,1752,1,,,,603,1149
73.76,1849,1,,,,545,1304
73.78,1797,1,,,,615,1182
73.8,1734,1,,,,581,1153
73.82,1689,1,,,,627,1062
73.84,1672,1,,,,614,1058
73.86,1767,1,,,,629,1138
73.88,1727,1,,,,637,1090
73.9,1735,1,,,,595,1140
73.92,1792,1,,,,601,1191
73.94,1711,1,,,,584,1127
73.96,1763,1,,,,594,1169
73.98,1748,1,,,,637,1111
74,1811,1,,,,598,1213
74.02,1699,1,,,,601,1098
74.04,1710,1,,,,616,1094
74.06,1798,1,,,,602,1196
74.08,1765,1,,,,608,1157
74.1,1767,1,,,,624,1143
74.12,1745,1,,,,624,1121
74.14,1790,1,,,,625,1165
74.16,1767,1,,,,609,1158
74.18,1745,1,,,,613,1132
74.2,1808,1,,,,587,1221
74.22,1761,1,,,,604,1157
74.24,1752,1,,,,621,1131
74.26,1773,1,,,,592,1181
74.28,1768,1,,,,580,1188
74.3,1813,1,,,,570,1243
74.32,1805,1,,,,590,1215
74.34,1730,1,,,,644,1086
74.36,1739,1,,,,635,1104
74.38,1682,1,,,,584,1098
74.4,1750,1,,,,595,1155
74.42,1761,1,,,,606,1155
74.44,1771,1,,,,582,1189
74.46,1745,1,,,,637,1108
74.48,1829,1,,,,621,1208
74.5,1818,1,,,,629,1189
74.52,1750,1,,,,616,1134
74.54,1700,1,,,,586,1114
74.56,1722,1,,,,598,1124
74.58,1824,1,,,,590,1234
74.6,1823,1,,,,591,1232
74.62,1764,1,,,,583,1181
74.64,1714,1,,,,619,1095
74.66,1751,1,,,,615,1136
74.68,1803,1,,,,591,1212
74.7,1793,1,,,,606,1187
74.72,1828,1,,,,597,1231
74.74,1745,1,,,,613,1132
74.76,1821,1,,,,579,1242
74.78,1819,1,,,,610,1209
74.8,1730,1,,,,625,1105
74.82,1737,1,,,,568,1169
74.84,1737,1,,,,626,1111
74.86,1800,1,,,,639,1161
74.88,1784,1,,,,597,1187
74.9,1774,1,,,,570,1204
74.92,1852,1,,,,545,1307
74.94,1814,1,,,,587,1227
74.96,1790,1,,,,569,1221
74.98,1741,1,,,,591,1150
75,1783,1,,,,539,1244
75.02,1773,1,,,,559,1214
75.04,1791,1,,,,583,1208
75.06,1802,1,,,,619,1183
75.08,1834,1,,,,576,1258
75.1,1851,1,,,,595,1256
75.12,1822,1,,,,595,1227
75.14,1844,1,,,,588,1256
75.16,1825,1,,,,607,1218
75.18,1773,1,,,,603,1170
75.2,1765,1,,,,588,1177
75.22,1787,1,,,,603,1184
75.24,1838,1,,,,599,1239
75.26,1774,1,,,,594,1180
75.28,1744,1,,,,581,1163
75.3,1771,1,,,,612,1159
75.32,1793,1,,,,574,1219
75.34,1743,1,,,,594,1149
75.36,1770,1,,,,565,1205
75.38,1730,1,,,,601,1129
75.4,1768,1,,,,581,1187
75.42,1758,1,,,,570,1188
75.44,1783,1,,,,603,1180
75.46,1749,1,,,,625,1124
75.48,1754,1,,,,579,1175
75.5,1741,1,,,,567,1174
75.52,1792,1,,,,538,1254
75.54,1704,1,,,,539,1165
75.56,1817,1,,,,596,1221
75.58,1787,1,,,,584,1203
75.6,1744,1,,,,594,1150
75.62,1728,1,,,,606,1122
75.64,1736,1,,,,596,1140
75.66,1810,1,,,,595,1215
75.68,1799,1,,,,586,1213
75.7,1828,1,,,,600,1228
75.72,1817,1,,,,604,1213
75.74,1763,1,,,,577,1186
75.76,1771,1,,,,599,1172
75.78,1744,1,,,,586,1158
75.8,1800,1,,,,571,1229
75.82,1740,1,,,,565,1175
75.84,1731,1,,,,553,1178
75.86,1766,1,,,,536,1230
75.88,1745,1,,,,604,1141
75.9,1720,1,,,,618,1102
75.92,1784,1,,,,592,1192
75.94,1829,1,,,,587,1242
75.96,1824,1,,,,573,1251
75.98,1774,1,,,,591,1183
76,1767,1,,,,594,1173
76.02,1747,1,,,,586,1161
76.04,1796,1,,,,567,1229
76.06,1764,1,,,,560,1204
76.08,1847,1,,,,574,1273
76.1,1850,1,,,,554,1296
76.12,1736,1,,,,591,1145
76.14,1799,1,,,,590,1209
76.16,1822,1,,,,581,1241
76.18,1821,1,,,,569,1252
76.2,1850,1,,,,542,1308
76.22,1781,1,,,,572,1209
76.24,1796,1,,,,564,1232
76.26,1786,1,,,,619,1167
76.28,1776,1,,,,597,1179
76.3,1769,1,,,,594,1175
76.32,1812,1,,,,543,1269
76.34,1819,1,,,,577,1242
76.36,1788,1,,,,570,1218
76.38,1786,1,,,,590,1196
76.4,1845,1,,,,588,1257
76.42,1753,1,,,,614,1139
76.44,1770,1,,,,577,1193
76.46,1831,1,,,,602,1229
76.48,1831,1,,,,598,1233
76.5,1886,1,,,,617,1269
76.52,1885,1,,,,600,1285
76.54,1909,1,,,,582,1327
76.56,1900,1,,,,581,1319
76.58,1775,1,,,,568,1207
76.6,1767,1,,,,590,1177
76.62,1854,1,,,,560,1294
76.64,1823,1,,,,580,1243
76.66,1900,1,,,,549,1351
76.68,1843,1,,,,590,1253
76.7,1909,1,,,,588,1321
76.72,1921,1,,,,575,1346
76.74,1954,1,,,,589,1365
76.76,1889,1,,,,574,1315
76.78,1924,1,,,,575,1349
76.8,1927,1,,,,579,1348
76.82,1867,1,,,,557,1310
76.84,1942,1,,,,548,1394
76.86,1975,1,,,,588,1387
76.88,1943,1,,,,576,1367
76.9,1852,1,,,,591,1261
76.92,1990,1,,,,577,1413
76.94,1923,1,,,,596,1327
76.96,1974,1,,,,551,1423
76.98,1949,1,,,,552,1397
77,2002,1,,,,553,1449
77.02,2050,1,,,,545,1505
77.04,2038,1,,,,573,1465
77.06,2070,1,,,,577,1493
77.08,2059,1,,,,586,1473
77.1,2049,1,,,,594,1455
77.12,2017,1,,,,622,1395
77.14,2074,1,,,,589,1485
77.16,2059,1,,,,561,1498
77.18,2061,1,,,,556,1505
77.2,2108,1,,,,516,1592
77.22,2128,1,,,,582,1546
77.24,2147,1,,,,571,1576
77.26,2078,1,,,,571,1507
77.28,2152,1,,,,577,1575
77.3,2206,1,,,,574,1632
77.32,2148,1,,,,588,1560
77.34,2062,1,,,,600,1462
77.36,2139,1,,,,579,1560
77.38,2183,1,,,,561,1622
77.4,2081,1,,,,581,1500
77.42,2061,1,,,,586,1475
77.44,2122,1,,,,564,1558
77.46,2101,1,,,,561,1540
77.48,2170,1,,,,594,1576
77.5,2076,1,,,,533,1543
77.52,2103,1,,,,560,1543
77.54,2102,1,,,,547,1555
77.56,1968,1,,,,556,1412
77.58,2097,1,,,,569,1528
77.6,2078,1,,,,561,1517
77.62,2061,1,,,,576,1485
77.64,2020,1,,,,565,1455
77.66,2012,1,,,,555,1457
77.68,2003,1,,,,560,1443
77.7,2007,1,,,,568,1439
77.72,2065,1,,,,559,1506
77.74,1952,1,,,,555,1397
77.76,1999,1,,,,587,1412
77.78,1895,1,,,,525,1370
77.8,1912,1,,,,572,1340
77.82,1961,1,,,,531,1430
77.84,1906,1,,,,593,1313
77.86,1981,1,,,,590,1391
77.88,1971,1,,,,562,1409
77.9,1869,1,,,,581,1288
77.92,1865,1,,,,578,1287
77.94,1913,1,,,,571,1342
77.96,1903,1,,,,584,1319
77.98,1800,1,,,,550,1250
78,1873,1,,,,569,1304
78.02,1830,1,,,,547,1283
78.04,1893,1,,,,555,1338
78.06,1879,1,,,,608,1271
78.08,1908,1,,,,556,1352
78.1,1848,1,,,,567,1281
78.12,1841,1,,,,604,1237
78.14,1784,1,,,,551,1233
78.16,1806,1,,,,541,1265
78.18,1865,1,,,,543,1322
78.2,1823,1,,,,553,1270
78.22,1837,1,,,,592,1245
78.24,1778,1,,,,589,1189
78.26,1821,1,,,,529,1292
78.28,1728,1,,,,544,1184
78.3,1726,1,,,,551,1175
78.32,1760,1,,,,575,1185
78.34,1724,1,,,,598,1126
78.36,1767,1,,,,560,1207
78.38,1798,1,,,,572,1226
78.4,1734,1,,,,585,1149
78.42,1722,1,,,,560,1162
78.44,1787,1,,,,542,1245
78.46,1778,1,,,,554,1224
78.48,1725,1,,,,553,1172
78.5,1751,1,,,,553,1198
78.52,1787,1,,,,557,1230
78.54,1709,1,,,,579,1130
78.56,1767,1,,,,555,1212
78.58,1755,1,,,,549,1206
78.6,1765,1,,,,540,1225
78.62,1683,1,,,,538,1145
78.64,1710,1,,,,510,1200
78.66,1680,1,,,,567,1113
78.68,1735,1,,,,576,1159
78.7,1710,1,,,,579,1131
78.72,1761,1,,,,521,1240
78.74,1763,1,,,,543,1220
78.76,1768,1,,,,548,1220
78.78,1744,1,,,,554,1190
78.8,1688,1,,,,547,1141
78.82,1741,1,,,,573,1168
78.84,1761,1,,,,593,1168
78.86,1701,1,,,,575,1126
78.88,1658,1,,,,556,1102
78.9,1684,1,,,,541,1143
78.92,1695,1,,,,527,1168
78.94,1675,1,,,,529,1146
78.96,1727,1,,,,518,1209
78.98,1743,1,,,,539,1204
79,1726,1,,,,534,1192
79.02,1713,1,,,,541,1172
79.04,1651,1,,,,537,1114
79.06,1729,1,,,,570,1159
79.08,1715,1,,,,571,1144
79.1,1674,1,,,,567,1107
79.12,1659,1,,,,535,1124
79.14,1686,1,,,,539,1147
79.16,1670,1,,,,548,1122
79.18,1677,1,,,,581,1096
79.2,1683,1,,,,573,1110
79.22,1672,1,,,,535,1137
79.24,1721,1,,,,543,1178
79.26,1740,1,,,,566,1174
79.28,1691,1,,,,536,1155
79.3,1687,1,,,,559,1128
79.32,1629,1,,,,570,1059
79.34,1618,1,,,,575,1043
79.36,1615,1,,,,571,1044
79.38,1685,1,,,,571,1114
79.4,1648,1,,,,563,1085
79.42,1673,1,,,,536,1137
79.44,1591,1,,,,573,1018
79.46,1659,1,,,,545,1114
79.48,1662,1,,,,530,1132
79.5,1652,1,,,,541,1111
79.52,1662,1,,,,562,1100
79.54,1697,1,,,,578,1119
79.56,1747,1,,,,558,1189
79.58,1687,1,,,,547,1140
79.6,1643,1,,,,572,1071
79.62,1624,1,,,,567,1057
79.64,1635,1,,,,544,1091
79.66,1606,1,,,,560,1046
79.68,1610,1,,,,526,1084
79.7,1678,1,,,,549,1129
79.72,1647,1,,,,561,1086
79.74,1637,1,,,,530,1107
79.76,1642,1,,,,509,1133
79.78,1662,1,,,,544,1118
79.8,1688,1,,,,530,1158
79.82,1687,1,,,,519,1168
79.84,1679,1,,,,520,1159
79.86,1691,1,,,,521,1170
79.88,1676,1,,,,561,1115
79.9,1663,1,,,,573,1090
79.92,1668,1,,,,569,1099
79.94,1714,1,,,,565,1149
79.96,1668,1,,,,554,1114
79.98,1708,1,,,,537,1171
80,1715,1,,,,531,1184